Horizontal,Vertical
0,0
1.111328125,-0.232421875
2.7021484375,-0.994140625
4.677734375,-1.8828125
6.79296875,-2.388671875
8.7099609375,-2.2255859375
10.0751953125,-1.4990234375
10.611328125,-0.6982421875
10.2197265625,-0.439453125
9.0166015625,-1.12109375
7.3310546875,-2.6669921875
5.65234375,-4.5390625
4.4931640625,-6.025390625
4.2265625,-6.603515625
4.8916015625,-6.1376953125
6.138671875,-4.8779296875
7.404296875,-3.30859375
8.1708984375,-1.9697265625
8.2080078125,-1.2900390625
7.611328125,-1.4560546875
6.6796875,-2.3681640625
5.732421875,-3.736328125
4.9560546875,-5.23828125
4.3603515625,-6.6455078125
3.82421875,-7.8759765625
3.1865234375,-8.9716796875
2.3388671875,-10.05078125
1.28515625,-11.1962890625
0.16015625,-12.306640625
-0.857421875,-13.0625
-1.6103515625,-13.0849609375
-2.056640625,-12.2314453125
-2.279296875,-10.8310546875
-2.384765625,-9.6220703125
-2.365234375,-9.4560546875
-2.04296875,-10.8701171875
-1.1591796875,-13.775390625
0.408203125,-17.4052734375
2.4873046875,-20.625
4.65234375,-22.4404296875
6.375,-22.4423828125
7.28515625,-20.9599609375
7.3173828125,-18.8369140625
6.7197265625,-16.994140625
5.8876953125,-16.037109375
5.14453125,-16.068359375
4.55078125,-16.7548828125
3.93359375,-17.5361328125
3.046875,-17.8837890625
1.7998046875,-17.5263671875
0.375,-16.490234375
-0.869140625,-15.01171875
-1.59765625,-13.396484375
-1.6796875,-11.9580078125
-1.1904296875,-10.9990234375
-0.296875,-10.7587890625
0.857421875,-11.2978515625
2.189453125,-12.4296875
3.5830078125,-13.7880859375
4.7822265625,-15.0087890625
5.3046875,-15.970703125
4.4423828125,-16.986328125
1.2939453125,-18.8994140625
-5.201171875,-23.0419921875
-16.146484375,-30.96484375
-32.48046875,-44.013671875
-54.6630859375,-62.8623046875
-82.38671875,-87.1953125
-114.431640625,-115.6328125
-148.748046875,-145.9921875
-182.75,-175.8291015625
-213.76953125,-203.041015625
-239.5078125,-226.26171875
-258.4443359375,-244.9169921875
-270.08984375,-259.017578125
-275.08984375,-268.9453125
-275.0595703125,-275.3369140625
-272.18359375,-279.0087890625
-268.62109375,-280.84375
-265.966796875,-281.5869140625
-264.92578125,-281.71875
-265.3125,-281.4716796875
-266.3193359375,-280.939453125
-266.9931640625,-280.177734375
-266.7041015625,-279.2353515625
-265.3623046875,-278.181640625
-263.3681640625,-277.115234375
-261.333984375,-276.2109375
-259.830078125,-275.693359375
-259.208984375,-275.77734375
-259.619140625,-276.5478515625
-260.9755859375,-277.8486328125
-262.9853515625,-279.27734375
-265.146484375,-280.3642578125
-266.8671875,-280.8125
-267.662109375,-280.6650390625
-267.3427734375,-280.2353515625
-266.125,-279.865234375
-264.5625,-279.701171875
-263.3505859375,-279.6435546875
-263.07421875,-279.44140625
-263.95703125,-278.869140625
-265.8232421875,-277.8642578125
-268.1708984375,-276.5888671875
-270.44921875,-275.4033203125
-272.28515625,-274.6962890625
-273.595703125,-274.666015625
-274.4921875,-275.1630859375
-275.0888671875,-275.75
-275.3544921875,-275.9248046875
-275.1416015625,-275.376953125
-274.3251953125,-274.134765625
-272.916015625,-272.5087890625
-271.05078125,-270.93359375
-268.9267578125,-269.73828125
-266.7294921875,-269.005859375
-264.6708984375,-268.5703125
-263.00390625,-268.1640625
-261.966796875,-267.5966796875
-261.6416015625,-266.837890625
-261.8740234375,-265.96875
-262.2939453125,-265.109375
-262.552734375,-264.365234375
-262.544921875,-263.8291015625
-262.474609375,-263.5888671875
-262.66796875,-263.71875
-263.265625,-264.31640625
-264.072265625,-265.4638671875
-264.6533203125,-267.1650390625
-264.62890625,-269.255859375
-263.919921875,-271.400390625
-262.802734375,-273.2177734375
-261.7529296875,-274.447265625
-261.181640625,-275.05078125
-261.2392578125,-275.171875
-261.771484375,-275.0107421875
-262.423828125,-274.7216796875
-262.826171875,-274.3828125
-262.8046875,-274.0576171875
-262.462890625,-273.87890625
-262.0966796875,-274.0703125
-261.9580078125,-274.8681640625
-262.0498046875,-276.3427734375
-262.0654296875,-278.2421875
-261.5283203125,-279.990234375
-260.0908203125,-280.8955078125
-257.783203125,-280.4658203125
-255.0810546875,-278.6494140625
-252.7255859375,-275.8671875
-251.345703125,-272.8369140625
-251.1337890625,-270.2978515625
-251.6953125,-268.7578125
-252.224609375,-268.3427734375
-251.8662109375,-268.8193359375
-250.111328125,-269.7587890625
-247.033203125,-270.765625
-243.291015625,-271.6025390625
-239.8564453125,-272.1875
-237.65625,-272.482421875
-237.216796875,-272.40234375
-238.5048828125,-271.818359375
-240.966796875,-270.6689453125
-243.7490234375,-269.1064453125
-246.05078125,-267.5556640625
-247.357421875,-266.6103515625
-247.6259765625,-266.7841796875
-247.189453125,-268.216796875
-246.54296875,-270.5390625
-246.09375,-272.9892578125
-245.974609375,-274.73046875
-246.0205078125,-275.1923828125
-245.8876953125,-274.2568359375
-245.2255859375,-272.2451171875
-243.8564453125,-269.7294921875
-241.8603515625,-267.2841796875
-239.53515625,-265.2822265625
-237.28515625,-263.818359375
-235.482421875,-262.7861328125
-234.3779296875,-262.0361328125
-234.119140625,-261.4912109375
-234.7724609375,-261.189453125
-236.3515625,-261.2060546875
-238.7265625,-261.544921875
-241.513671875,-262.05078125
-244.0771484375,-262.435546875
-245.7080078125,-262.41796875
-245.95703125,-261.908203125
-244.8876953125,-261.09375
-243.11328125,-260.3505859375
-241.5224609375,-260.021484375
-240.8515625,-260.23046875
-241.3291015625,-260.83203125
-242.5849609375,-261.4892578125
-243.83984375,-261.8291015625
-244.279296875,-261.6103515625
-243.3896484375,-260.80859375
-241.1767578125,-259.5986328125
-238.1171875,-258.21484375
-234.9462890625,-256.8310546875
-232.34765625,-255.53125
-230.7392578125,-254.408203125
-230.220703125,-253.6416015625
-230.6650390625,-253.4775390625
-231.826171875,-254.08984375
-233.40234375,-255.4404296875
-235.048828125,-257.2216796875
-236.3935546875,-258.9453125
-237.1015625,-260.1044921875
-237.013671875,-260.36328125
-236.2138671875,-259.67578125
-235.0771484375,-258.26953125
-234.142578125,-256.517578125
-233.8994140625,-254.8134765625
-234.576171875,-253.5283203125
-236.017578125,-252.9912109375
-237.75390625,-253.40234375
-239.2109375,-254.669921875
-239.9521484375,-256.34765625
-239.8310546875,-257.759765625
-239.01171875,-258.31640625
-237.8994140625,-257.849609375
-236.9501953125,-256.751953125
-236.4873046875,-255.8173828125
-236.5498046875,-255.833984375
-236.892578125,-257.1533203125
-237.150390625,-259.412109375
-237.0380859375,-261.650390625
-236.498046875,-262.7724609375
-235.7021484375,-262.119140625
-234.986328125,-259.8115234375
-234.7080078125,-256.732421875
-235.107421875,-254.1083984375
-236.234375,-252.9501953125
-237.9794921875,-253.6005859375
-240.169921875,-255.6015625
-242.6337890625,-257.9853515625
-245.16015625,-259.7841796875
-247.435546875,-260.4677734375
-249.0302734375,-260.0439453125
-249.5244140625,-258.8681640625
-248.6884765625,-257.3330078125
-246.6376953125,-255.6630859375
-243.8974609375,-253.86328125
-241.2890625,-251.80859375
-239.673828125,-249.376953125
-239.64453125,-246.568359375
-241.2763671875,-243.552734375
-244.0771484375,-240.6318359375
-247.1435546875,-238.16015625
-249.46484375,-236.46484375
-250.259765625,-235.7666015625
-249.267578125,-236.0751953125
-246.89453125,-237.1015625
-244.0908203125,-238.267578125
-242.0068359375,-238.900390625
-241.501953125,-238.5390625
-242.767578125,-237.158203125
-245.2333984375,-235.2001953125
-247.826171875,-233.3740234375
-249.44140625,-232.3720703125
-249.43359375,-232.607421875
-247.8935546875,-234.0703125
-245.5859375,-236.3447265625
-243.5966796875,-238.7958984375
-242.814453125,-240.853515625
-243.572265625,-242.224609375
-245.580078125,-242.9091796875
-248.1162109375,-243.0419921875
-250.365234375,-242.716796875
-251.68359375,-241.96875
-251.7919921875,-240.8671875
-250.7763671875,-239.62109375
-248.986328125,-238.55078125
-246.8583984375,-237.966796875
-244.7998046875,-238.033203125
-243.1396484375,-238.673828125
-242.0810546875,-239.6005859375
-241.615234375,-240.45703125
-241.521484375,-241.0107421875
-241.4248046875,-241.2607421875
-241.015625,-241.34765625
-240.2626953125,-241.3583984375
-239.48828125,-241.1787109375
-239.232421875,-240.521484375
-240.001953125,-239.091796875
-242.0009765625,-236.7890625
-244.9560546875,-233.82421875
-248.125,-230.7158203125
-250.5517578125,-228.115234375
-251.4775390625,-226.5380859375
-250.736328125,-226.1416015625
-248.8203125,-226.71484375
-246.6005859375,-227.8291015625
-244.8369140625,-228.955078125
-243.78125,-229.416015625
-242.927734375,-228.259765625
-241.095703125,-224.296875
-236.7177734375,-216.38671875
-228.291015625,-203.76953125
-214.7001953125,-186.232421875
-195.4423828125,-164.00390625
-170.7216796875,-137.6220703125
-141.51953125,-107.974609375
-109.583984375,-76.5869140625
-77.236328125,-45.873046875
-46.974609375,-19.0048828125
-21.0009765625,0.7734375
-0.86328125,11.197265625
12.7548828125,11.849609375
20.05859375,4.341796875
22.0732421875,-8.2841796875
20.4482421875,-22.6083984375
17.11328125,-35.7978515625
13.8310546875,-46.1650390625
11.7919921875,-53.2763671875
11.375,-57.6875
12.22265625,-60.4560546875
13.58984375,-62.5625
14.771484375,-64.529296875
15.44140625,-66.3583984375
15.6796875,-67.822265625
15.7646484375,-68.83203125
15.8447265625,-69.6259765625
15.8408203125,-70.6484375
15.5185546875,-72.228515625
14.7275390625,-74.283203125
13.5439453125,-76.263671875
12.2890625,-77.3701171875
11.380859375,-76.9462890625
11.1376953125,-74.822265625
11.61328125,-71.4453125
12.5771484375,-67.720703125
13.662109375,-64.66796875
14.5693359375,-63.0107421875
15.2021484375,-62.88671875
15.6220703125,-63.7900390625
15.9248046875,-64.78515625
16.1240234375,-64.9453125
16.1484375,-63.7529296875
15.890625,-61.291015625
15.283203125,-58.1240234375
14.359375,-55.001953125
13.2216796875,-52.5791015625
11.9833984375,-51.228515625
10.6943359375,-50.9794921875
9.3134765625,-51.5517578125
7.7666015625,-52.4609375
6.0263671875,-53.1640625
4.203125,-53.18359375
2.501953125,-52.2392578125
1.1767578125,-50.3701171875
0.482421875,-47.953125
0.6123046875,-45.5908203125
1.650390625,-43.8212890625
3.517578125,-42.876953125
5.99609375,-42.6005859375
8.7783203125,-42.62890625
11.5439453125,-42.66015625
13.9775390625,-42.634765625
15.7958984375,-42.7412109375
16.759765625,-43.294921875
16.8056640625,-44.5537109375
16.1298828125,-46.58203125
15.2294921875,-49.2138671875
14.8046875,-52.1240234375
15.4736328125,-54.9658203125
17.4619140625,-57.4736328125
20.3984375,-59.4853515625
23.392578125,-60.9208984375
25.3994140625,-61.7880859375
25.705078125,-62.2021484375
24.3076171875,-62.3701171875
21.94921875,-62.5078125
19.791015625,-62.765625
18.884765625,-63.19140625
19.703125,-63.732421875
22.0087890625,-64.1875
25.0546875,-64.2333984375
28.0341796875,-63.5595703125
30.421875,-62.068359375
32.099609375,-59.986328125
33.208984375,-57.76953125
33.9580078125,-55.8544921875
34.4638671875,-54.4453125
34.7158203125,-53.4482421875
34.6162109375,-52.568359375
34.0380859375,-51.5439453125
32.9345703125,-50.3330078125
31.416015625,-49.1826171875
29.7890625,-48.48828125
28.4638671875,-48.5341796875
27.7734375,-49.2998046875
27.78125,-50.4287109375
28.197265625,-51.3837890625
28.49609375,-51.6279296875
28.2001953125,-50.8056640625
27.2119140625,-48.8681640625
25.916015625,-46.140625
24.9931640625,-43.2919921875
25,-41.1513671875
26.0771484375,-40.423828125
27.921875,-41.4091796875
29.9921875,-43.8251953125
31.78125,-46.833984375
32.9892578125,-49.2998046875
33.5615234375,-50.2197265625
33.6083984375,-49.169921875
33.3271484375,-46.564453125
32.8623046875,-43.5478515625
32.2451171875,-41.5302734375
31.3662109375,-41.5537109375
30.0966796875,-43.80859375
28.4482421875,-47.548828125
26.6796875,-51.4755859375
25.283203125,-54.375
24.7626953125,-55.642578125
25.3134765625,-55.4326171875
26.5947265625,-54.369140625
27.78125,-53.1201171875
27.9462890625,-52.1103515625
26.546875,-51.5078125
23.69140625,-51.361328125
20.0732421875,-51.6728515625
16.6513671875,-52.3681640625
14.2587890625,-53.2099609375
13.34765625,-53.80078125
13.927734375,-53.7099609375
15.65625,-52.701171875
17.98046875,-50.916015625
20.2978515625,-48.8984375
22.099609375,-47.4189453125
23.033203125,-47.1376953125
22.919921875,-48.3193359375
21.748046875,-50.7109375
19.67578125,-53.6376953125
17.0595703125,-56.2568359375
14.439453125,-57.8330078125
12.4560546875,-57.9892578125
11.6845703125,-56.84375
12.443359375,-54.9873046875
14.619140625,-53.2431640625
17.6533203125,-52.2587890625
20.7177734375,-52.18359375
23.0146484375,-52.603515625
24.1064453125,-52.79296875
24.0703125,-52.150390625
23.4169921875,-50.580078125
22.8076171875,-48.5673828125
22.6904296875,-46.916015625
23.0791015625,-46.2529296875
23.609375,-46.67578125
23.826171875,-47.748046875
23.5087890625,-48.84375
22.8095703125,-49.541015625
22.130859375,-49.79296875
21.83984375,-49.7783203125
22.0458984375,-49.6884765625
22.5458984375,-49.5849609375
22.9052734375,-49.4384765625
22.6806640625,-49.2353515625
21.623046875,-49.05859375
19.8408203125,-49.0869140625
17.7685546875,-49.513671875
16.01171875,-50.40234375
15.0771484375,-51.5849609375
15.17578125,-52.7041015625
16.14453125,-53.3662109375
17.5380859375,-53.32421875
18.8408203125,-52.5478515625
19.6884765625,-51.2265625
19.9599609375,-49.7177734375
19.7626953125,-48.4931640625
19.3173828125,-47.9443359375
18.822265625,-48.19140625
18.3798828125,-48.96875
18.025390625,-49.7236328125
17.7451171875,-49.84375
17.5322265625,-48.9423828125
17.3671875,-47.0458984375
17.2724609375,-44.666015625
17.326171875,-42.6484375
17.6337890625,-41.7822265625
18.2626953125,-42.3564453125
19.1689453125,-43.951171875
20.197265625,-45.6455078125
21.115234375,-46.49609375
21.6748046875,-46.0107421875
21.658203125,-44.3740234375
20.955078125,-42.3798828125
19.6171875,-41.0693359375
17.8955078125,-41.248046875
16.146484375,-43.0732421875
14.716796875,-45.9765625
13.857421875,-48.98828125
13.7294921875,-51.29296875
14.40625,-52.5908203125
15.857421875,-53.1123046875
17.8115234375,-53.34765625
19.7333984375,-53.71484375
20.9423828125,-54.3525390625
20.90234375,-55.1123046875
19.521484375,-55.712890625
17.2685546875,-55.9541015625
14.99609375,-55.89453125
13.537109375,-55.826171875
13.298828125,-56.064453125
14.107421875,-56.724609375
15.37890625,-57.6240234375
16.4775390625,-58.369140625
17.025390625,-58.501953125
17.0537109375,-57.6875
16.8876953125,-55.875
16.904296875,-53.4052734375
17.298828125,-50.921875
17.9931640625,-49.125
18.7314453125,-48.4462890625
19.25,-48.87109375
19.509765625,-49.955078125
19.732421875,-51.0205078125
20.3203125,-51.4375
21.619140625,-50.9287109375
23.66796875,-49.7373046875
26.0625,-48.5498046875
28.1015625,-48.115234375
29.111328125,-48.8349609375
28.80078125,-50.5361328125
27.40234375,-52.58984375
25.546875,-54.26953125
23.990234375,-55.1005859375
23.322265625,-55.0517578125
23.7685546875,-54.505859375
25.18359375,-54.025390625
27.1650390625,-54.041015625
29.2666015625,-54.6298828125
31.142578125,-55.515625
32.5703125,-56.2958984375
33.423828125,-56.728515625
33.68359375,-56.8984375
33.48046875,-57.1455078125
33.0732421875,-57.8349609375
32.728515625,-59.12890625
32.5517578125,-60.8955078125
32.4228515625,-62.7802734375
32.091796875,-64.3515625
31.3173828125,-65.244140625
30.0654296875,-65.2392578125
28.560546875,-64.330078125
27.2353515625,-62.7412109375
26.4990234375,-60.955078125
26.5048828125,-59.60546875
27.03125,-59.25
27.6259765625,-60.0576171875
27.8642578125,-61.6748046875
27.61328125,-63.3662109375
27.0712890625,-64.392578125
26.6142578125,-64.3603515625
26.556640625,-63.4150390625
27.0048828125,-62.1279296875
27.841796875,-61.2177734375
28.8310546875,-61.2314453125
29.74609375,-62.318359375
30.439453125,-64.1884765625
30.8349609375,-66.2744140625
30.869140625,-68.0087890625
30.427734375,-69.0712890625
29.419921875,-69.4521484375
27.8740234375,-69.3525390625
25.978515625,-68.962890625
24.0185546875,-68.322265625
22.263671875,-67.302734375
20.904296875,-65.7626953125
20.0283203125,-63.7119140625
19.6455078125,-61.38671875
19.6689453125,-59.1513671875
19.9365234375,-57.3388671875
20.2490234375,-56.134765625
20.4775390625,-55.5771484375
20.6494140625,-55.560546875
20.9013671875,-55.798828125
21.365234375,-55.791015625
22.0478515625,-54.9580078125
22.837890625,-52.9736328125
23.537109375,-50.0498046875
23.8310546875,-46.8798828125
23.251953125,-44.078125
21.2783203125,-41.4052734375
17.658203125,-37.28515625
12.6806640625,-29.0263671875
7.2548828125,-13.7333984375
2.5625,10.7294921875
-0.537109375,45.3701171875
-2.0732421875,90.3447265625
-3.01171875,145.5185546875
-4.6689453125,210.8896484375
-7.7998046875,286.6396484375
-12.06640625,372.6728515625
-16.236328125,467.6806640625
-18.9619140625,568.1767578125
-19.5791015625,668.2841796875
-18.37890625,760.8251953125
-16.21875,839.4775390625
-13.8212890625,900.9375
-11.3525390625,946.0068359375
-8.5107421875,978.9345703125
-4.982421875,1005.4267578125
-0.8515625,1030.275390625
3.4228515625,1055.828125
7.4033203125,1081.9150390625
11.0986328125,1106.966796875
15.111328125,1129.3837890625
20.3203125,1148.357421875
27.3037109375,1163.9501953125
35.8505859375,1176.775390625
44.8505859375,1187.6650390625
52.7099609375,1197.439453125
58.0771484375,1206.654296875
60.4423828125,1215.3291015625
60.314453125,1222.90625
58.8583984375,1228.6474609375
57.30078125,1232.2548828125
56.3857421875,1234.1591796875
56.1513671875,1235.19140625
56.08984375,1235.958984375
55.6298828125,1236.466796875
54.619140625,1236.1220703125
53.4501953125,1233.9375
52.79296875,1228.7705078125
53.080078125,1219.5849609375
54.15234375,1205.73046875
55.255859375,1187.095703125
55.41796875,1164.021484375
53.9296875,1137.1044921875
50.70703125,1107.146484375
46.3046875,1075.3037109375
41.6162109375,1043.154296875
37.447265625,1012.419921875
34.15625,984.35546875
31.5791015625,959.236328125
29.2392578125,936.244140625
26.7236328125,913.810546875
24.0224609375,890.2197265625
21.5703125,864.23828125
19.982421875,835.53515625
19.62890625,804.712890625
20.3291015625,772.9765625
21.3271484375,741.5859375
21.6640625,711.4521484375
20.673828125,682.98828125
18.380859375,656.1279296875
15.5693359375,630.4150390625
13.3916015625,605.1005859375
12.8193359375,579.3330078125
14.1650390625,552.4296875
16.923828125,524.0927734375
20.0546875,494.435546875
22.4560546875,463.884765625
23.455078125,433.05859375
23.0126953125,402.658203125
21.6650390625,373.3525390625
20.2314453125,345.6435546875
19.4287109375,319.7880859375
19.59375,295.8017578125
20.625,273.54296875
22.15234375,252.7734375
23.7880859375,233.1748046875
25.287109375,214.40625
26.5361328125,196.2099609375
27.447265625,178.5498046875
27.90625,161.66015625
27.783203125,145.9892578125
27.015625,132.02734375
25.658203125,120.119140625
23.912109375,110.314453125
22.052734375,102.3076171875
20.3408203125,95.51171875
18.92578125,89.2265625
17.796875,82.857421875
16.857421875,76.1328125
16.017578125,69.21484375
15.2822265625,62.640625
14.7529296875,57.0791015625
14.6015625,53.0009765625
14.9990234375,50.4326171875
16.021484375,48.927734375
17.5810546875,47.74609375
19.41015625,46.1181640625
21.146484375,43.49609375
22.4697265625,39.736328125
23.2548828125,35.13671875
23.58984375,30.310546875
23.736328125,25.9306640625
23.96484375,22.478515625
24.4150390625,20.123046875
25.03515625,18.7314453125
25.64453125,17.9580078125
26.02734375,17.3076171875
26.078125,16.3037109375
25.8662109375,14.6806640625
25.6025390625,12.5478515625
25.4990234375,10.3349609375
25.603515625,8.5234375
25.7431640625,7.369140625
25.673828125,6.7763671875
25.27734375,6.4072265625
24.6669921875,5.9326171875
24.0419921875,5.2353515625
23.4248046875,4.4814453125
22.5,4.00390625
20.7412109375,4.041015625
17.794921875,4.466796875
13.8076171875,4.7392578125
9.4921875,4.1240234375
5.8173828125,2.1064453125
3.56640625,-1.31640625
2.9970703125,-5.623046875
3.8134765625,-9.9833984375
5.419921875,-13.5634765625
7.2841796875,-15.77734375
9.0986328125,-16.47265625
10.7705078125,-15.9736328125
12.2724609375,-14.9814453125
13.548828125,-14.3115234375
14.5009765625,-14.6044921875
15.0341796875,-16.064453125
15.08984375,-18.365234375
14.654296875,-20.7265625
13.794921875,-22.2041015625
12.6923828125,-22.099609375
11.6220703125,-20.2890625
10.8583984375,-17.2841796875
10.5830078125,-13.990234375
10.8095703125,-11.3203125
11.396484375,-9.8701171875
12.08203125,-9.771484375
12.5673828125,-10.7578125
12.6484375,-12.384765625
12.3349609375,-14.2236328125
11.8662109375,-15.9619140625
11.580078125,-17.353515625
11.6826171875,-18.16015625
12.033203125,-18.2392578125
12.1787109375,-17.716796875
11.6015625,-17.0625
10.0869140625,-16.8828125
7.9482421875,-17.5830078125
5.958984375,-19.125
4.97265625,-21.0830078125
5.4462890625,-22.8779296875
7.1552734375,-24.0732421875
9.287109375,-24.521484375
10.859375,-24.380859375
11.1982421875,-23.9619140625
10.2763671875,-23.5400390625
8.6689453125,-23.2548828125
7.265625,-23.115234375
6.8583984375,-23.025390625
7.8203125,-22.7998046875
9.982421875,-22.197265625
12.7333984375,-21.08984375
15.271484375,-19.6796875
16.873046875,-18.560546875
17.09765625,-18.4716796875
15.9072265625,-19.87890625
13.6650390625,-22.6337890625
11.013671875,-25.998046875
8.6484375,-28.990234375
7.0595703125,-30.841796875
6.3369140625,-31.3203125
6.15625,-30.775390625
5.9453125,-29.92578125
5.1748046875,-29.498046875
3.650390625,-29.916015625
1.62109375,-31.1845703125
-0.3466796875,-32.9873046875
-1.6533203125,-34.8916015625
-1.9619140625,-36.4873046875
-1.310546875,-37.4892578125
-0.0341796875,-37.78125
1.3642578125,-37.4619140625
2.3603515625,-36.7734375
2.529296875,-35.966796875
1.6875,-35.1923828125
-0.0166015625,-34.4990234375
-2.078125,-33.9189453125
-3.82421875,-33.5322265625
-4.6455078125,-33.46875
-4.2734375,-33.8408203125
-2.9248046875,-34.6708984375
-1.2880859375,-35.828125
-0.19921875,-37.0166015625
-0.2158203125,-37.865234375
-1.2880859375,-38.083984375
-2.8310546875,-37.591796875
-4.115234375,-36.5234375
-4.7373046875,-35.1240234375
-4.841796875,-33.654296875
-4.9482421875,-32.3359375
-5.55078125,-31.3271484375
-6.7783203125,-30.69140625
-8.3046875,-30.38671875
-9.564453125,-30.3388671875
-10.1083984375,-30.548828125
-9.875,-31.1162109375
-9.2255859375,-32.1201171875
-8.7216796875,-33.4541015625
-8.7685546875,-34.7890625
-9.392578125,-35.6953125
-10.2705078125,-35.8388671875
-10.875,-35.1220703125
-10.728515625,-33.71875
-9.5849609375,-32.033203125
-7.529296875,-30.576171875
-4.939453125,-29.794921875
-2.3564453125,-29.9375
-0.291015625,-30.9873046875
0.9306640625,-32.693359375
1.21875,-34.6484375
0.732421875,-36.4052734375
-0.193359375,-37.62890625
-1.1142578125,-38.1982421875
-1.634765625,-38.2001953125
-1.5595703125,-37.7861328125
-0.9736328125,-37.03515625
-0.173828125,-35.9755859375
0.4833984375,-34.7197265625
0.7568359375,-33.5341796875
0.5966796875,-32.7236328125
0.197265625,-32.41796875
-0.0615234375,-32.4970703125
0.267578125,-32.73046875
1.5146484375,-33.009765625
3.65625,-33.455078125
6.2216796875,-34.3076171875
8.388671875,-35.67578125
9.2861328125,-37.3427734375
8.3564453125,-38.7919921875
5.6279296875,-39.474609375
1.751953125,-39.1435546875
-2.240234375,-38.03515625
-5.34375,-36.7724609375
-6.9931640625,-36.0390625
-7.2470703125,-36.2490234375
-6.70703125,-37.396484375
-6.220703125,-39.1240234375
-6.5126953125,-40.912109375
-7.865234375,-42.302734375
-10.029296875,-43.078125
-12.3408203125,-43.3330078125
-14.05859375,-43.388671875
-14.6591796875,-43.5986328125
-14.0146484375,-44.1494140625
-12.3623046875,-44.9462890625
-10.1962890625,-45.705078125
-8.1162109375,-46.1357421875
-6.6533203125,-46.154296875
-6.0947265625,-45.95703125
-6.34765625,-45.921875
-6.955078125,-46.408203125
-7.2958984375,-47.5556640625
-6.876953125,-49.2119140625
-5.5927734375,-51.0107421875
-3.7890625,-52.5751953125
-2.0888671875,-53.7177734375
-1.0703125,-54.541015625
-0.962890625,-55.3720703125
-1.587890625,-56.5908203125
-2.5341796875,-58.3564453125
-3.4599609375,-60.419921875
-4.291015625,-62.1240234375
-5.1953125,-62.677734375
-6.4140625,-61.533203125
-8.0048828125,-58.677734375
-9.7060546875,-54.65234375
-10.9658203125,-50.37890625
-11.13671875,-46.833984375
-9.76953125,-44.73046875
-6.8779296875,-44.25
-3.0107421875,-44.9638671875
0.9052734375,-45.9873046875
3.9228515625,-46.337890625
5.4013671875,-45.328125
5.228515625,-42.8486328125
3.7802734375,-39.447265625
1.7451171875,-36.1220703125
-0.126953125,-33.8935546875
-1.2783203125,-33.3212890625
-1.4833984375,-34.263671875
-0.8544921875,-36.03515625
0.2822265625,-37.8681640625
1.580078125,-39.3291015625
2.8330078125,-40.4345703125
4.0263671875,-41.447265625
5.267578125,-42.5771484375
6.6357421875,-43.806640625
8.0732421875,-44.896484375
9.3681640625,-45.552734375
10.263671875,-45.6201171875
10.5986328125,-45.19140625
10.3935546875,-44.541015625
9.8173828125,-43.97265625
9.08984375,-43.6767578125
8.43359375,-43.732421875
8.05078125,-44.1435546875
8.1298828125,-44.8095703125
8.783203125,-45.462890625
9.96484375,-45.7021484375
11.4111328125,-45.16015625
12.7001953125,-43.7255859375
13.3935546875,-41.6357421875
13.193359375,-39.42578125
12.046875,-37.74609375
10.1474609375,-37.13671875
7.8544921875,-37.8212890625
5.580078125,-39.5546875
3.6787109375,-41.6923828125
2.3984375,-43.453125
1.845703125,-44.2646484375
1.974609375,-44.01171875
2.59765625,-43.0087890625
3.451171875,-41.7802734375
4.2841796875,-40.7587890625
4.9091796875,-40.080078125
5.22265625,-39.560546875
5.1728515625,-38.9169921875
4.767578125,-38.0458984375
4.10546875,-37.1953125
3.3466796875,-36.83203125
2.6396484375,-37.3173828125
2.0849609375,-38.654296875
1.6767578125,-40.4638671875
1.3818359375,-42.177734375
1.205078125,-43.302734375
1.2685546875,-43.595703125
1.7841796875,-43.1396484375
2.9736328125,-42.3134765625
4.87109375,-41.67578125
7.181640625,-41.7734375
9.318359375,-42.939453125
10.5927734375,-45.1953125
10.5419921875,-48.2255859375
9.1416015625,-51.4423828125
6.83984375,-54.1474609375
4.34765625,-55.7978515625
2.3359375,-56.22265625
1.1669921875,-55.7138671875
0.841796875,-54.87109375
1.1181640625,-54.3173828125
1.728515625,-54.427734375
2.5048828125,-55.23046875
3.359375,-56.4580078125
4.181640625,-57.697265625
4.8203125,-58.5576171875
5.16015625,-58.8232421875
5.208984375,-58.48046875
5.14453125,-57.646484375
5.1669921875,-56.4658203125
5.3671875,-55.08203125
5.6474609375,-53.64453125
5.79296875,-52.3349609375
5.64453125,-51.349609375
5.271484375,-50.86328125
4.9912109375,-50.966796875
5.26171875,-51.60546875
6.462890625,-52.5556640625
8.6806640625,-53.4794921875
11.615234375,-54.0419921875
14.6845703125,-54.029296875
17.26171875,-53.3974609375
18.8935546875,-52.259765625
19.4345703125,-50.83203125
19.0517578125,-49.3603515625
18.10546875,-48.0693359375
16.97265625,-47.099609375
15.91796875,-46.4921875
15.0400390625,-46.224609375
14.37890625,-46.26953125
13.99609375,-46.595703125
13.998046875,-47.1181640625
14.4677734375,-47.6728515625
15.359375,-48.041015625
16.470703125,-48.0419921875
17.4609375,-47.607421875
17.9609375,-46.853515625
17.7001953125,-46.0556640625
16.568359375,-45.541015625
14.6572265625,-45.521484375
12.251953125,-45.9814453125
9.822265625,-46.7197265625
7.953125,-47.4853515625
7.15234375,-48.1396484375
7.63671875,-48.681640625
9.19921875,-49.2021484375
11.2783203125,-49.7958984375
13.1962890625,-50.484375
14.44140625,-51.1640625
14.8232421875,-51.5888671875
14.4736328125,-51.4609375
13.69921875,-50.650390625
12.783203125,-49.3740234375
11.8369140625,-48.1826171875
10.787109375,-47.73046875
9.4931640625,-48.4765625
7.8935546875,-50.4716796875
6.109375,-53.3388671875
4.43359375,-56.3935546875
3.2314453125,-58.8818359375
2.814453125,-60.25
3.3251953125,-60.3466796875
4.6494140625,-59.4580078125
6.400390625,-58.1328125
8.048828125,-56.9765625
9.125,-56.4462890625
9.3857421875,-56.7470703125
8.87109375,-57.8212890625
7.8603515625,-59.3740234375
6.7421875,-61.015625
5.8515625,-62.40234375
5.306640625,-63.3466796875
4.951171875,-63.830078125
4.47265625,-63.9287109375
3.6064453125,-63.751953125
2.328125,-63.4169921875
0.8837890625,-63.0302734375
-0.3583984375,-62.6728515625
-1.125,-62.3603515625
-1.3876953125,-62.0712890625
-1.38671875,-61.7900390625
-1.470703125,-61.525390625
-1.888671875,-61.27734375
-2.595703125,-61.0419921875
-3.2177734375,-60.857421875
-3.205078125,-60.845703125
-2.08203125,-61.18359375
0.2705078125,-61.990234375
3.4521484375,-63.23046875
6.662109375,-64.7021484375
8.982421875,-66.091796875
9.755859375,-67.1025390625
8.84765625,-67.5576171875
6.6806640625,-67.5009765625
4.0166015625,-67.177734375
1.5947265625,-66.9267578125
-0.1611328125,-66.9921875
-1.189453125,-67.4140625
-1.6533203125,-68.0068359375
-1.7060546875,-68.48046875
-1.3662109375,-68.57421875
-0.546875,-68.2138671875
0.7802734375,-67.5712890625
2.4287109375,-67.0146484375
4.0263671875,-66.9345703125
5.185546875,-67.546875
5.75390625,-68.7392578125
5.8671875,-70.1318359375
5.81640625,-71.2392578125
5.7958984375,-71.7275390625
5.77734375,-71.5693359375
5.5634765625,-71.0478515625
5.00390625,-70.5556640625
4.140625,-70.328125
3.2294921875,-70.2607421875
2.6240234375,-69.9970703125
2.58203125,-69.2099609375
3.08984375,-67.8896484375
3.8212890625,-66.455078125
4.322265625,-65.583984375
4.244140625,-65.8798828125
3.564453125,-67.5390625
2.5986328125,-70.1943359375
1.890625,-73.048828125
1.9453125,-75.2626953125
2.9921875,-76.353515625
4.8388671875,-76.416015625
6.9228515625,-75.9794921875
8.5712890625,-75.599609375
9.2421875,-75.4287109375
8.6015625,-75.0263671875
6.2705078125,-73.5537109375
1.5517578125,-70.1787109375
-6.7021484375,-64.4033203125
-19.875,-56.1259765625
-39.150390625,-45.4404296875
-65.0390625,-32.4130859375
-97.0771484375,-17.0849609375
-133.68359375,0.23046875
-172.3896484375,18.6474609375
-210.2724609375,36.6904296875
-244.5693359375,52.6640625
-273.1494140625,65.1533203125
-294.7900390625,73.328125
-309.2001953125,76.9892578125
-316.8759765625,76.427734375
-318.9052734375,72.3125
-316.7900390625,65.619140625
-312.283203125,57.5732421875
-307.1572265625,49.4990234375
-302.9052734375,42.5517578125
-300.3701171875,37.439453125
-299.5498046875,34.2412109375
-299.7412109375,32.419921875
-300.0224609375,31.0888671875
-299.7734375,29.3740234375
-298.96875,26.7353515625
-298.056640625,23.12109375
-297.6083984375,18.9033203125
-297.9775390625,14.6953125
-299.146484375,11.0791015625
-300.830078125,8.3857421875
-302.6708984375,6.5771484375
-304.40234375,5.3330078125
-305.9189453125,4.255859375
-307.234375,3.0888671875
-308.3779296875,1.7861328125
-309.3251953125,0.4755859375
-310.01171875,-0.634765625
-310.390625,-1.3623046875
-310.5146484375,-1.6416015625
-310.5302734375,-1.5908203125
-310.5458984375,-1.451171875
-310.5048828125,-1.42578125
-310.1552734375,-1.513671875
-309.18359375,-1.4619140625
-307.5,-0.9052734375
-305.4052734375,0.419921875
-303.53515625,2.4677734375
-302.4990234375,4.8388671875
-302.470703125,6.890625
-303.0146484375,8.0126953125
-303.2919921875,7.9345703125
-302.5126953125,6.8798828125
-300.4423828125,5.44921875
-297.5751953125,4.2802734375
-294.9482421875,3.6923828125
-293.6181640625,3.5634765625
-294.125,3.482421875
-296.232421875,3.046875
-299.0361328125,2.1455078125
-301.4560546875,1.01953125
-302.7939453125,0.06640625
-303.1474609375,-0.44140625
-303.3662109375,-0.517578125
-304.6240234375,-0.3896484375
-307.78515625,-0.2783203125
-312.912109375,-0.2470703125
-319.142578125,-0.2080078125
-325.0537109375,-0.01171875
-329.236328125,0.44140625
-330.869140625,1.1337890625
-330.0126953125,1.9052734375
-327.5263671875,2.4765625
-324.662109375,2.5693359375
-322.5537109375,2.080078125
-321.78515625,1.2265625
-322.2666015625,0.4912109375
-323.3984375,0.361328125
-324.4384765625,1.01953125
-324.8701171875,2.23046875
-324.53515625,3.5009765625
-323.6162109375,4.392578125
-322.4345703125,4.7529296875
-321.3125,4.7607421875
-320.46875,4.705078125
-319.9931640625,4.74609375
-319.890625,4.806640625
-320.140625,4.689453125
-320.697265625,4.2919921875
-321.462890625,3.7001953125
-322.2548828125,3.1005859375
-322.822265625,2.642578125
-322.9345703125,2.3857421875
-322.4384765625,2.333984375
-321.310546875,2.4638671875
-319.6708984375,2.6689453125
-317.7275390625,2.7119140625
-315.73828125,2.2548828125
-313.9462890625,1.00390625
-312.5556640625,-1.1123046875
-311.7158203125,-3.78515625
-311.541015625,-6.328125
-312.07421875,-7.890625
-313.212890625,-7.8798828125
-314.6953125,-6.3466796875
-316.1767578125,-4.0625
-317.3564453125,-2.1640625
-318.08984375,-1.595703125
-318.3701171875,-2.669921875
-318.248046875,-4.994140625
-317.7548828125,-7.7294921875
-316.90234375,-10.0185546875
-315.7548828125,-11.326171875
-314.4228515625,-11.5947265625
-313.029296875,-11.140625
-311.6181640625,-10.392578125
-310.158203125,-9.6689453125
-308.6064453125,-9.1044921875
-306.9658203125,-8.68359375
-305.3583984375,-8.33984375
-303.9677734375,-8.015625
-302.9501953125,-7.712890625
-302.3251953125,-7.5146484375
-301.9716796875,-7.5439453125
-301.7626953125,-7.8603515625
-301.666015625,-8.369140625
-301.71875,-8.841796875
-301.927734375,-9.0068359375
-302.203125,-8.662109375
-302.40625,-7.7509765625
-302.443359375,-6.3935546875
-302.37109375,-4.8916015625
-302.390625,-3.666015625
-302.765625,-3.123046875
-303.666015625,-3.484375
-305.0517578125,-4.7197265625
-306.6650390625,-6.6220703125
-308.1904296875,-8.939453125
-309.3994140625,-11.4599609375
-310.2470703125,-13.9599609375
-310.8154296875,-16.171875
-311.2158203125,-17.7919921875
-311.5029296875,-18.5830078125
-311.6630859375,-18.4560546875
-311.6591796875,-17.5517578125
-311.45703125,-16.28515625
-311.0966796875,-15.30859375
-310.701171875,-15.3349609375
-310.431640625,-16.8544921875
-310.416015625,-19.83984375
-310.6845703125,-23.685546875
-311.1806640625,-27.40234375
-311.765625,-29.982421875
-312.263671875,-30.7822265625
-312.474609375,-29.7490234375
-312.2236328125,-27.423828125
-311.4443359375,-24.7001953125
-310.2421875,-22.51953125
-308.921875,-21.625
-307.9189453125,-22.451171875
-307.654296875,-25.0791015625
-308.349609375,-29.1650390625
-309.892578125,-33.923828125
-311.8369140625,-38.28125
-313.5791015625,-41.255859375
-314.630859375,-42.3837890625
-314.7998046875,-41.9091796875
-314.208984375,-40.638671875
-313.181640625,-39.55859375
-312.0458984375,-39.4384765625
-311.0009765625,-40.55078125
-310.0546875,-42.55859375
-309.1015625,-44.630859375
-308.046875,-45.76171875
-306.9130859375,-45.19140625
-305.79296875,-42.7607421875
-304.7705078125,-39.0068359375
-303.83203125,-34.9560546875
-302.912109375,-31.6689453125
-301.927734375,-29.7705078125
-300.84765625,-29.1884765625
-299.70703125,-29.267578125
-298.591796875,-29.1337890625
-297.5966796875,-28.1337890625
-296.8251953125,-26.078125
-296.3759765625,-23.2646484375
-296.2939453125,-20.3125
-296.5361328125,-17.9599609375
-296.9970703125,-16.833984375
-297.6064453125,-17.2578125
-298.4130859375,-19.0927734375
-299.5341796875,-21.7763671875
-301.0380859375,-24.5439453125
-302.7607421875,-26.734375
-304.3017578125,-28.0361328125
-305.189453125,-28.5400390625
-305.1806640625,-28.5556640625
-304.46875,-28.3369140625
-303.6298828125,-27.90234375
-303.2880859375,-27.0810546875
-303.7275390625,-25.7158203125
-304.728515625,-23.880859375
-305.703125,-21.923828125
-306.080078125,-20.298828125
-305.6044921875,-19.33984375
-304.466796875,-19.0947265625
-303.177734375,-19.3408203125
-302.3583984375,-19.6904296875
-302.4443359375,-19.7890625
-303.5087890625,-19.4990234375
-305.240234375,-19.015625
-307.1435546875,-18.7587890625
-308.83984375,-19.08984375
-310.2734375,-20.033203125
-311.666015625,-21.20703125
-313.265625,-22.0166015625
-315.080078125,-21.9921875
-316.8076171875,-21.078125
-317.986328125,-19.7294921875
-318.27734375,-18.7255859375
-317.7041015625,-18.75
-316.6591796875,-19.9638671875
-315.6826171875,-21.8671875
-315.1357421875,-23.5322265625
-315.0205078125,-24.060546875
-315.056640625,-22.984375
-314.908203125,-20.40625
-314.4072265625,-16.888671875
-313.5703125,-13.20703125
-312.5263671875,-10.0908203125
-311.37890625,-7.9951171875
-310.15625,-7.0439453125
-308.857421875,-7.0673828125
-307.5224609375,-7.7373046875
-306.3076171875,-8.6552734375
-305.4482421875,-9.4091796875
-305.1689453125,-9.64453125
-305.5517578125,-9.189453125
-306.4755859375,-8.166015625
-307.66015625,-6.95703125
-308.8046875,-6.017578125
-309.7236328125,-5.65625
-310.396484375,-5.9306640625
-310.9248046875,-6.669921875
-311.4306640625,-7.619140625
-311.9677734375,-8.5625
-312.4814453125,-9.4296875
-312.8017578125,-10.2919921875
-312.728515625,-11.2939453125
-312.046875,-12.578125
-310.4853515625,-14.2451171875
-307.556640625,-16.357421875
-302.3701171875,-18.953125
-293.611328125,-22.0810546875
-279.7587890625,-25.91796875
-259.5380859375,-30.958984375
-232.408203125,-38.1435546875
-198.94140625,-48.6962890625
-160.9599609375,-63.5498046875
-121.3369140625,-82.62890625
-83.51953125,-104.3828125
-50.833984375,-126.0029296875
-25.7978515625,-144.296875
-9.6083984375,-156.849609375
-1.92578125,-162.875
-0.99609375,-163.3662109375
-4.13671875,-160.5185546875
-8.462890625,-156.7724609375
-11.6357421875,-153.93359375
-12.4169921875,-152.751953125
-10.806640625,-153.0166015625
-7.822265625,-153.9970703125
-4.9150390625,-154.9306640625
-3.3017578125,-155.3232421875
-3.40625,-155.0283203125
-4.7978515625,-154.0869140625
-6.5244140625,-152.5703125
-7.6865234375,-150.501953125
-7.89453125,-147.962890625
-7.359375,-145.2216796875
-6.671875,-142.7509765625
-6.392578125,-141.0517578125
-6.734375,-140.419921875
-7.517578125,-140.826171875
-8.3486328125,-141.9892578125
-8.8759765625,-143.544921875
-8.927734375,-145.205078125
-8.4853515625,-146.8154296875
-7.6455078125,-148.298828125
-6.5986328125,-149.5458984375
-5.65234375,-150.35546875
-5.1953125,-150.490234375
-5.5537109375,-149.8583984375
-6.8076171875,-148.6337890625
-8.7099609375,-147.224609375
-10.7744140625,-146.1103515625
-12.4521484375,-145.6337890625
-13.2978515625,-145.8916015625
-13.103515625,-146.703125
-11.87890625,-147.673828125
-9.83203125,-148.373046875
-7.3037109375,-148.533203125
-4.7158203125,-148.1796875
-2.517578125,-147.595703125
-1.087890625,-147.1650390625
-0.6005859375,-147.177734375
-0.9267578125,-147.7177734375
-1.650390625,-148.61328125
-2.142578125,-149.484375
-1.7294921875,-149.9150390625
0.123046875,-149.6982421875
3.5859375,-149.0205078125
8.3427734375,-148.451171875
13.6376953125,-148.6748046875
18.501953125,-150.150390625
22.08984375,-152.8671875
23.9287109375,-156.2998046875
24.0048828125,-159.5849609375
22.716796875,-161.8037109375
20.7138671875,-162.318359375
18.7197265625,-161.0380859375
17.318359375,-158.505859375
16.8095703125,-155.7314453125
17.08984375,-153.7919921875
17.6845703125,-153.3701171875
17.9287109375,-154.4189453125
17.2705078125,-156.1650390625
15.5703125,-157.5048828125
13.1962890625,-157.5673828125
10.89453125,-156.1923828125
9.4658203125,-153.98046875
9.484375,-151.9501953125
11.08984375,-151.0029296875
14.00390625,-151.52734375
17.63671875,-153.287109375
21.263671875,-155.5634765625
24.212890625,-157.4169921875
26.0654296875,-158.03515625
26.791015625,-157.1005859375
26.705078125,-154.99609375
26.310546875,-152.7021484375
26.0986328125,-151.3720703125
26.38671875,-151.7509765625
27.2900390625,-153.740234375
28.740234375,-156.396484375
30.5009765625,-158.3828125
32.208984375,-158.7041015625
33.443359375,-157.2236328125
33.8291015625,-154.705078125
33.1748046875,-152.365234375
31.546875,-151.2119140625
29.2578125,-151.580078125
26.7294921875,-153.021484375
24.30859375,-154.59375
22.1171875,-155.3505859375
20.0712890625,-154.7890625
17.9599609375,-153.04296875
15.6376953125,-150.7431640625
13.1357421875,-148.6611328125
10.732421875,-147.34765625
8.90234375,-146.9638671875
8.142578125,-147.3173828125
8.6904296875,-148.046875
10.30078125,-148.765625
12.2470703125,-149.1884765625
13.6591796875,-149.19921875
13.9208984375,-148.8564453125
12.966796875,-148.34765625
11.2197265625,-147.8740234375
9.314453125,-147.5927734375
7.7275390625,-147.615234375
6.59375,-148.0517578125
5.7421875,-149.0380859375
4.892578125,-150.6572265625
3.8759765625,-152.8818359375
2.740234375,-155.4912109375
1.7509765625,-158.07421875
1.236328125,-160.1005859375
1.4599609375,-161.095703125
2.474609375,-160.8515625
4.0830078125,-159.58203125
5.9189453125,-157.87109375
7.5986328125,-156.44140625
8.90625,-155.8564453125
9.8583984375,-156.3134765625
10.654296875,-157.5927734375
11.48046875,-159.1640625
12.3984375,-160.419921875
13.2919921875,-160.935546875
13.990234375,-160.6494140625
14.3857421875,-159.8505859375
14.47265625,-158.99609375
14.271484375,-158.50390625
13.73828125,-158.626953125
12.7509765625,-159.4140625
11.2109375,-160.6845703125
9.205078125,-162.0361328125
7.0537109375,-162.9306640625
5.2373046875,-162.9345703125
4.16015625,-161.9580078125
3.95703125,-160.3671875
4.4130859375,-158.81640625
5.0966796875,-157.9111328125
5.5810546875,-157.873046875
5.650390625,-158.4404296875
5.3525390625,-159.029296875
4.9013671875,-159.10546875
4.5205078125,-158.5615234375
4.283203125,-157.8115234375
4.1298828125,-157.5869140625
3.958984375,-158.4755859375
3.779296875,-160.53515625
3.7646484375,-163.2041015625
4.1982421875,-165.5810546875
5.3095703125,-166.8701171875
7.0869140625,-166.7880859375
9.1806640625,-165.697265625
11.013671875,-164.4306640625
11.9951171875,-163.8671875
11.8291015625,-164.494140625
10.65234375,-166.1513671875
8.9677734375,-168.07421875
7.419921875,-169.2392578125
6.5234375,-168.87890625
6.509765625,-166.9033203125
7.318359375,-164.0078125
8.6728515625,-161.333984375
10.166015625,-159.904296875
11.3828125,-160.083984375
12.0458984375,-161.4404296875
12.0986328125,-162.9931640625
11.6904296875,-163.751953125
11.064453125,-163.216796875
10.3994140625,-161.62109375
9.7470703125,-159.7880859375
9.04296875,-158.6484375
8.2021484375,-158.703125
7.228515625,-159.73828125
6.283203125,-160.99609375
5.62109375,-161.6435546875
5.453125,-161.234375
5.828125,-159.9453125
6.6494140625,-158.462890625
7.755859375,-157.6298828125
9.0234375,-158.0126953125
10.37109375,-159.6181640625
11.7666015625,-161.912109375
13.17578125,-164.10546875
14.4853515625,-165.521484375
15.455078125,-165.880859375
15.6845703125,-165.384765625
14.775390625,-164.6328125
12.5693359375,-164.3671875
9.3642578125,-165.1474609375
5.921875,-167.0380859375
3.1708984375,-169.5146484375
1.791015625,-171.671875
1.892578125,-172.677734375
3.041015625,-172.158203125
4.5068359375,-170.326171875
5.654296875,-167.7646484375
6.19921875,-165.076171875
6.2421875,-162.623046875
6.1171875,-160.46484375
6.1279296875,-158.484375
6.3603515625,-156.5673828125
6.6923828125,-154.7470703125
6.943359375,-153.2275390625
6.9873046875,-152.28125
6.794921875,-152.1318359375
6.3857421875,-152.85546875
5.8076171875,-154.3330078125
5.19921875,-156.2626953125
4.7685546875,-158.21484375
4.75,-159.7421875
5.2646484375,-160.5380859375
6.232421875,-160.55859375
7.369140625,-160.0458984375
8.3154296875,-159.4150390625
8.814453125,-159.0791015625
8.7890625,-159.283203125
8.3359375,-160.005859375
7.6083984375,-161.009765625
6.765625,-161.98046875
5.9853515625,-162.65234375
5.5205078125,-162.8857421875
5.6611328125,-162.6357421875
6.5625,-161.8759765625
8.0458984375,-160.572265625
9.5478515625,-158.7236328125
10.34375,-156.4267578125
9.9453125,-153.939453125
8.4345703125,-151.6689453125
6.43359375,-150.111328125
4.748046875,-149.7255859375
3.9287109375,-150.7333984375
3.9609375,-152.923828125
4.3427734375,-155.6015625
4.4208984375,-157.7412109375
3.8330078125,-158.357421875
2.7392578125,-156.984375
1.7802734375,-153.96484375
1.7587890625,-150.4296875
3.169921875,-147.8291015625
5.890625,-147.240234375
9.1640625,-148.8017578125
11.970703125,-151.6591796875
13.509765625,-154.470703125
13.58984375,-156.1826171875
12.6748046875,-156.5380859375
11.6484375,-156.07421875
11.4033203125,-155.6669921875
12.50390625,-155.94921875
14.9921875,-156.97265625
18.3447265625,-158.193359375
21.67578125,-158.7783203125
24.072265625,-158.0517578125
24.9697265625,-155.880859375
24.3583984375,-152.7431640625
22.7158203125,-149.4111328125
20.7509765625,-146.4521484375
19.048828125,-143.9326171875
17.8154296875,-141.4716796875
16.7890625,-138.43359375
15.501953125,-134.001953125
13.734375,-127.1337890625
11.6318359375,-116.7060546875
9.2548828125,-101.8330078125
5.978515625,-81.8046875
0.505859375,-55.302734375
-8.396484375,-19.4462890625
-20.955078125,30.162109375
-35.8603515625,97.9052734375
-50.4912109375,185.775390625
-61.7958984375,291.4453125
-67.4658203125,407.861328125
-66.853515625,524.8212890625
-61.1220703125,632.0712890625
-52.671875,722.5263671875
-44.17578125,793.9521484375
-37.6923828125,848.4560546875
-34.169921875,890.5009765625
-33.3505859375,924.8125
-34.0791015625,954.9990234375
-34.888671875,982.9296875
-34.6845703125,1008.71875
-33.15234375,1031.3046875
-30.7119140625,1049.4609375
-28.0830078125,1062.771484375
-25.8359375,1072.0322265625
-24.25,1078.90234375
-23.48046875,1085.1484375
-23.7392578125,1091.9111328125
-25.220703125,1099.400390625
-27.75390625,1106.994140625
-30.5537109375,1113.607421875
-32.37890625,1118.0361328125
-32.07421875,1119.23046875
-29.1884765625,1116.4130859375
-24.283203125,1109.0693359375
-18.7314453125,1096.8740234375
-14.087890625,1079.685546875
-11.3798828125,1057.716796875
-10.6357421875,1031.7373046875
-10.951171875,1003.0322265625
-11.052734375,972.9677734375
-10.0146484375,942.4287109375
-7.6826171875,911.517578125
-4.638671875,879.7607421875
-1.7685546875,846.6259765625
0.10546875,811.9638671875
0.48046875,776.13671875
-0.751953125,739.857421875
-3.3154296875,703.92578125
-6.587890625,669.033203125
-9.732421875,635.599609375
-11.9296875,603.6650390625
-12.6435546875,572.84375
-11.8076171875,542.4248046875
-9.7998046875,511.64453125
-7.248046875,480.0263671875
-4.7958984375,447.619140625
-2.916015625,415.02734375
-1.8505859375,383.1845703125
-1.619140625,352.97265625
-2.0673828125,324.84375
-2.935546875,298.7021484375
-3.8779296875,274.0869140625
-4.529296875,250.5185546875
-4.5478515625,227.779296875
-3.7568359375,205.96875
-2.22265625,185.3828125
-0.2822265625,166.3564453125
1.572265625,149.140625
2.9267578125,133.822265625
3.6005859375,120.2763671875
3.6962890625,108.1796875
3.490234375,97.1064453125
3.24609375,86.619140625
3.0859375,76.365234375
2.9794921875,66.1796875
2.8544921875,56.1767578125
2.720703125,46.701171875
2.70703125,38.119140625
2.9482421875,30.55859375
3.44921875,23.8330078125
4.0322265625,17.6220703125
4.4775390625,11.748046875
4.671875,6.279296875
4.6650390625,1.43359375
4.5810546875,-2.6279296875
4.4580078125,-5.8994140625
4.1484375,-8.4912109375
3.4130859375,-10.578125
2.119140625,-12.375
0.4013671875,-14.1298828125
-1.3466796875,-16.078125
-2.6416015625,-18.3330078125
-3.1708984375,-20.8251953125
-2.9892578125,-23.330078125
-2.5185546875,-25.5849609375
-2.3193359375,-27.4326171875
-2.7431640625,-28.9013671875
-3.6953125,-30.1591796875
-4.7275390625,-31.3525390625
-5.2978515625,-32.5068359375
-5.0986328125,-33.5283203125
-4.19921875,-34.3271484375
-2.94921875,-34.9326171875
-1.7763671875,-35.4775390625
-1.005859375,-36.1103515625
-0.755859375,-36.9091796875
-0.9423828125,-37.8759765625
-1.33203125,-38.994140625
-1.6376953125,-40.2958984375
-1.634765625,-41.880859375
-1.236328125,-43.83203125
-0.51171875,-46.08203125
0.3544921875,-48.337890625
1.16796875,-50.17578125
1.8076171875,-51.2763671875
2.2392578125,-51.634765625
2.4658203125,-51.5849609375
2.49609375,-51.5673828125
2.3662109375,-51.8974609375
2.21875,-52.6650390625
2.3095703125,-53.791015625
2.9091796875,-55.1435546875
4.130859375,-56.591796875
5.7451171875,-58.0244140625
7.20703125,-59.3505859375
7.892578125,-60.501953125
7.4677734375,-61.46484375
6.169921875,-62.30078125
4.7763671875,-63.1376953125
4.2412109375,-64.1044921875
5.13671875,-65.2021484375
7.3046875,-66.2900390625
9.8828125,-67.2060546875
11.732421875,-67.9580078125
12.0126953125,-68.7705078125
10.5712890625,-69.9638671875
7.951171875,-71.7490234375
5.0546875,-74.0751953125
2.6796875,-76.6484375
1.177734375,-79.0615234375
0.4140625,-80.9736328125
-0.009765625,-82.21484375
-0.4306640625,-82.8369140625
-0.93359375,-83.0302734375
-1.3916015625,-83.01171875
-1.6435546875,-82.9091796875
-1.673828125,-82.7470703125
-1.6259765625,-82.470703125
-1.6806640625,-82.0078125
-1.8701171875,-81.3291015625
-1.9853515625,-80.5224609375
-1.630859375,-79.845703125
-0.4169921875,-79.646484375
1.7822265625,-80.1728515625
4.7373046875,-81.3662109375
7.92578125,-82.8076171875
10.7236328125,-83.8798828125
12.5849609375,-84.060546875
13.1875,-83.203125
12.4912109375,-81.66015625
10.748046875,-80.1923828125
8.43359375,-79.6484375
6.0888671875,-80.5419921875
4.068359375,-82.7490234375
2.40625,-85.5419921875
0.8740234375,-87.9619140625
-0.783203125,-89.306640625
-2.5947265625,-89.4580078125
-4.3251953125,-88.8466796875
-5.640625,-88.1806640625
-6.3974609375,-88.0712890625
-6.787109375,-88.7841796875
-7.26953125,-90.1708984375
-8.3056640625,-91.822265625
-10.052734375,-93.3359375
-12.2236328125,-94.53125
-14.1748046875,-95.5087890625
-15.1337890625,-96.5546875
-14.5322265625,-97.96484375
-12.27734375,-99.8642578125
-8.845703125,-102.05078125
-5.1259765625,-104.0048828125
-2.0439453125,-105.134765625
-0.1162109375,-105.1416015625
0.7744140625,-104.2841796875
1.2373046875,-103.29296875
1.9267578125,-102.9765625
3.1181640625,-103.7626953125
4.55078125,-105.4521484375
5.61328125,-107.302734375
5.7255859375,-108.3896484375
4.666015625,-108.080078125
2.6396484375,-106.40234375
0.15234375,-104.12109375
-2.25,-102.421875
-4.1875,-102.3955078125
-5.515625,-104.541015625
-6.2646484375,-108.54296875
-6.5205078125,-113.4052734375
-6.384765625,-117.8720703125
-6.0009765625,-120.9296875
-5.587890625,-122.1708984375
-5.4208984375,-121.806640625
-5.7255859375,-120.3828125
-6.568359375,-118.4501953125
-7.7626953125,-116.416015625
-8.9052734375,-114.599609375
-9.5556640625,-113.345703125
-9.4453125,-112.97265625
-8.59375,-113.583984375
-7.2197265625,-114.90234375
-5.5751953125,-116.275390625
-3.8349609375,-116.9052734375
-2.140625,-116.19921875
-0.7431640625,-114.0595703125
-0.0185546875,-111.0302734375
-0.3388671875,-108.16796875
-1.875,-106.662109375
-4.44140625,-107.3388671875
-7.509765625,-110.271484375
-10.373046875,-114.740234375
-12.396484375,-119.5146484375
-13.185546875,-123.353515625
-12.68359375,-125.4814453125
-11.1435546875,-125.8232421875
-9.0556640625,-124.93359375
-7.0400390625,-123.6728515625
-5.6650390625,-122.8291015625
-5.2734375,-122.9013671875
-5.8388671875,-124.0927734375
-7.0068359375,-126.349609375
-8.29296875,-129.375
-9.330078125,-132.634765625
-9.98046875,-135.4482421875
-10.28125,-137.205078125
-10.337890625,-137.5927734375
-10.2412109375,-136.66015625
-10.0947265625,-134.7490234375
-10.01171875,-132.359375
-10.09375,-130.0341796875
-10.3486328125,-128.2783203125
-10.69921875,-127.46484375
-10.9970703125,-127.7607421875
-11.123046875,-129.0419921875
-11.04296875,-130.8759765625
-10.869140625,-132.6083984375
-10.7900390625,-133.5927734375
-10.935546875,-133.51953125
-11.2158203125,-132.62109375
-11.3134765625,-131.5908203125
-10.845703125,-131.201171875
-9.6357421875,-131.8896484375
-7.8896484375,-133.5322265625
-6.1923828125,-135.544921875
-5.248046875,-137.2021484375
-5.5283203125,-138
-6.9462890625,-137.8798828125
-8.8212890625,-137.2587890625
-10.1865234375,-136.8173828125
-10.2802734375,-137.1787109375
-8.9052734375,-138.6181640625
-6.5107421875,-140.9423828125
-3.94921875,-143.5458984375
-2.134765625,-145.6025390625
-1.70703125,-146.3603515625
-2.796875,-145.462890625
-5.0068359375,-143.17578125
-7.56640625,-140.3173828125
-9.642578125,-137.873046875
-10.6591796875,-136.509765625
-10.5244140625,-136.267578125
-9.6279296875,-136.6044921875
-8.669921875,-136.732421875
-8.33203125,-136.0625
-8.9951171875,-134.5439453125
-10.5947265625,-132.7548828125
-12.6767578125,-131.638671875
-14.6279296875,-131.9931640625
-15.904296875,-133.974609375
-16.271484375,-136.9287109375
-15.8857421875,-139.6513671875
-15.2431640625,-140.935546875
-14.9462890625,-140.115234375
-15.3564453125,-137.4013671875
-16.3662109375,-133.8486328125
-17.4404296875,-130.931640625
-17.9541015625,-129.892578125
-17.5751953125,-131.189453125
-16.423828125,-134.33203125
-14.9541015625,-138.1806640625
-13.62890625,-141.45703125
-12.642578125,-143.236328125
-11.853515625,-143.1953125
-10.9951171875,-141.6337890625
-9.9794921875,-139.3037109375
-9.107421875,-137.1064453125
-8.96875,-135.7919921875
-10.068359375,-135.7587890625
-12.4228515625,-137.0087890625
-15.404296875,-139.1904296875
-17.935546875,-141.7138671875
-18.966796875,-143.927734375
-18.0244140625,-145.3486328125
-15.505859375,-145.8310546875
-12.54296875,-145.5654296875
-10.4951171875,-144.9326171875
-10.2900390625,-144.3505859375
-11.9853515625,-144.1962890625
-14.7314453125,-144.7841796875
-17.2265625,-146.2900390625
-18.3447265625,-148.6240234375
-17.677734375,-151.3662109375
-15.693359375,-153.845703125
-13.4423828125,-155.3798828125
-12.0361328125,-155.5673828125
-12.0966796875,-154.4873046875
-13.521484375,-152.7001953125
-15.6005859375,-150.998046875
-17.4140625,-150.025390625
-18.2880859375,-150.001953125
-18.0341796875,-150.69921875
-16.94921875,-151.658203125
-15.58203125,-152.4619140625
-14.470703125,-152.8974609375
-13.9296875,-152.9853515625
-13.9775390625,-152.9169921875
-14.3408203125,-152.93359375
-14.615234375,-153.1728515625
-14.396484375,-153.578125
-13.416015625,-153.9658203125
-11.5576171875,-154.154296875
-8.87890625,-154.1025390625
-5.6064453125,-153.904296875
-2.078125,-153.712890625
1.3134765625,-153.66796875
4.2353515625,-153.8408203125
6.43359375,-154.22265625
7.7626953125,-154.7470703125
8.2158203125,-155.328125
7.9697265625,-155.9365234375
7.3681640625,-156.5927734375
6.81640625,-157.2998046875
6.638671875,-157.9384765625
6.9677734375,-158.2412109375
7.69921875,-157.89453125
8.5673828125,-156.6845703125
9.314453125,-154.6181640625
9.8095703125,-151.966796875
10.103515625,-149.2060546875
10.3154296875,-146.8623046875
10.505859375,-145.287109375
10.5986328125,-144.478515625
10.451171875,-144.0673828125
9.9697265625,-143.5263671875
9.1904296875,-142.4404296875
8.2705078125,-140.6962890625
7.41015625,-138.53125
6.8232421875,-136.4560546875
6.6630859375,-135.0947265625
6.978515625,-134.9873046875
7.642578125,-136.375
8.32421875,-139.0908203125
8.576171875,-142.6328125
8.03125,-146.31640625
6.6044921875,-149.4638671875
4.58984375,-151.55078125
2.5595703125,-152.3447265625
1.0859375,-151.9951171875
0.4755859375,-151.0048828125
0.64453125,-150.005859375
1.2431640625,-149.50390625
1.8994140625,-149.662109375
2.4619140625,-150.2705078125
3.0498046875,-150.873046875
3.947265625,-150.9990234375
5.3896484375,-150.4033203125
7.3896484375,-149.197265625
9.64453125,-147.7724609375
11.564453125,-146.5458984375
12.490234375,-145.7158203125
11.9404296875,-145.1982421875
9.814453125,-144.759765625
6.470703125,-144.20703125
2.6123046875,-143.4619140625
-0.912109375,-142.5224609375
-3.390625,-141.4228515625
-4.5166015625,-140.2255859375
-4.537109375,-139.03515625
-4.1923828125,-137.986328125
-4.3779296875,-137.189453125
-5.7255859375,-136.66015625
-8.291015625,-136.2939453125
-11.5068359375,-135.890625
-14.44921875,-135.28515625
-16.2568359375,-134.5302734375
-16.5146484375,-133.9541015625
-15.388671875,-133.978515625
-13.5205078125,-134.7861328125
-11.705078125,-136.0771484375
-10.5634765625,-137.1416015625
-10.3525390625,-137.1953125
-10.9619140625,-135.8076171875
-12.0068359375,-133.1640625
-12.9794921875,-130.0263671875
-13.423828125,-127.4033203125
-13.0966796875,-126.0849609375
-12.0205078125,-126.3056640625
-10.400390625,-127.72265625
-8.435546875,-129.70703125
-6.1787109375,-131.6923828125
-3.533203125,-133.404296875
-0.3740234375,-134.841796875
3.26171875,-136.123046875
7.02734375,-137.306640625
10.2900390625,-138.27734375
12.3515625,-138.765625
12.8251953125,-138.5107421875
11.859375,-137.4853515625
10.1455078125,-136.001953125
8.578125,-134.59375
7.869140625,-133.7158203125
8.240234375,-133.4765625
9.3662109375,-133.5380859375
10.5830078125,-133.291015625
11.2216796875,-132.2021484375
10.896484375,-130.1826171875
9.646484375,-127.7548828125
7.8515625,-125.892578125
6.07421875,-125.546875
4.85546875,-127.1298828125
4.529296875,-130.2216796875
5.12109375,-133.73046875
6.3388671875,-136.3916015625
7.6455078125,-137.3544921875
8.4560546875,-136.5625
8.39453125,-134.681640625
7.4853515625,-132.7080078125
6.15625,-131.482421875
5.072265625,-131.3916015625
4.841796875,-132.373046875
5.7255859375,-134.0791015625
7.4833984375,-136.0830078125
9.421875,-137.9755859375
10.6728515625,-139.4111328125
10.5859375,-140.173828125
9.0341796875,-140.2431640625
6.4580078125,-139.79296875
3.703125,-139.109375
1.689453125,-138.4453125
1.0849609375,-137.943359375
2.087890625,-137.646484375
4.3515625,-137.5771484375
7.1005859375,-137.8203125
9.412109375,-138.509765625
10.5283203125,-139.748046875
10.1015625,-141.43359375
8.25,-143.19140625
5.4521484375,-144.4580078125
2.341796875,-144.73046875
-0.5400390625,-143.80859375
-2.8828125,-141.9658203125
-4.6337890625,-139.9208984375
-5.890625,-138.6484375
-6.802734375,-138.9970703125
-7.521484375,-141.283203125
-8.1884765625,-145.0751953125
-8.94921875,-149.35546875
-9.8818359375,-152.9326171875
-10.9208984375,-154.9404296875
-11.8330078125,-155.0986328125
-12.291015625,-153.732421875
-12.04296875,-151.56640625
-11.05859375,-149.4443359375
-9.5732421875,-148.0439453125
-8.060546875,-147.708984375
-7.046875,-148.431640625
-6.919921875,-149.9443359375
-7.75,-151.8251953125
-9.2412109375,-153.5322265625
-10.8203125,-154.4609375
-11.8544921875,-154.1005859375
-11.904296875,-152.2919921875
-10.884765625,-149.3798828125
-9.078125,-146.1259765625
-6.953125,-143.396484375
-4.9033203125,-141.7861328125
-3.08984375,-141.3916015625
-1.458984375,-141.8349609375
0.056640625,-142.4990234375
1.390625,-142.884765625
2.3740234375,-142.8251953125
2.8916015625,-142.466796875
2.986328125,-142.0400390625
2.8193359375,-141.6337890625
2.5634765625,-141.138671875
2.2666015625,-140.3857421875
1.8759765625,-139.3408203125
1.3310546875,-138.1953125
0.6533203125,-137.3046875
-0.01953125,-137.0283203125
-0.4970703125,-137.5791015625
-0.625,-138.9208984375
-0.3447265625,-140.7900390625
0.326171875,-142.8232421875
1.267578125,-144.734375
2.2255859375,-146.4033203125
2.818359375,-147.802734375
2.63671875,-148.8701171875
1.462890625,-149.4921875
-0.541015625,-149.6181640625
-2.8466796875,-149.384765625
-4.8046875,-149.123046875
-5.96875,-149.1904296875
-6.3173828125,-149.751953125
-6.2255859375,-150.6455078125
-6.2763671875,-151.4365234375
-7.0107421875,-151.6591796875
-8.75,-151.1689453125
-11.619140625,-150.40234375
-15.71484375,-150.4052734375
-21.3203125,-152.630859375
-28.9873046875,-158.58984375
-39.4521484375,-169.4345703125
-53.3974609375,-185.626953125
-71.193359375,-206.736328125
-92.6474609375,-231.42578125
-116.837890625,-257.6904296875
-142.0615234375,-283.27734375
-166.0166015625,-306.1669921875
-186.2021484375,-324.9697265625
-200.525390625,-339.1279296875
-207.9365234375,-348.9267578125
-208.83203125,-355.2802734375
-205.0205078125,-359.392578125
-199.125,-362.3837890625
-193.70703125,-365.0185546875
-190.44921875,-367.6220703125
-189.783203125,-370.1337890625
-191.0517578125,-372.267578125
-193.025390625,-373.673828125
-194.501953125,-374.1005859375
-194.7958984375,-373.53125
-193.9296875,-372.2421875
-192.5498046875,-370.7421875
-191.56640625,-369.59375
-191.65234375,-369.166015625
-192.904296875,-369.4599609375
-194.80859375,-370.08984375
-196.5341796875,-370.4697265625
-197.3759765625,-370.126953125
-197.080078125,-368.97265625
-195.95703125,-367.341796875
-194.689453125,-365.794921875
-193.9970703125,-364.8486328125
-194.2685546875,-364.798828125
-195.39453125,-365.6826171875
-196.892578125,-367.302734375
-198.1484375,-369.236328125
-198.6455078125,-370.9013671875
-198.099609375,-371.712890625
-196.486328125,-371.318359375
-194.037109375,-369.71484375
-191.1845703125,-367.25390625
-188.4599609375,-364.48046875
-186.373046875,-361.9619140625
-185.271484375,-360.1455078125
-185.2255859375,-359.255859375
-185.9775390625,-359.24609375
-187.041015625,-359.833984375
-187.9345703125,-360.5693359375
-188.375,-361.013671875
-188.34765625,-360.9208984375
-187.97265625,-360.396484375
-187.369140625,-359.8896484375
-186.5771484375,-359.9716796875
-185.603515625,-360.962890625
-184.4755859375,-362.669921875
-183.2890625,-364.4208984375
-182.1640625,-365.435546875
-181.25,-365.306640625
-180.72265625,-364.240234375
-180.7783203125,-362.9091796875
-181.54296875,-361.990234375
-182.9580078125,-361.6845703125
-184.693359375,-361.5322265625
-186.1748046875,-360.677734375
-186.7705078125,-358.44140625
-186.0830078125,-354.8515625
-184.146484375,-350.7421875
-181.494140625,-347.337890625
-178.96875,-345.591796875
-177.435546875,-345.7119140625
-177.3857421875,-347.1337890625
-178.65625,-348.8623046875
-180.427734375,-349.927734375
-181.5732421875,-349.744140625
-181.197265625,-348.2861328125
-179.1357421875,-346.0478515625
-176.1376953125,-343.8232421875
-173.5390625,-342.3662109375
-172.5615234375,-342.1083984375
-173.642578125,-342.982421875
-176.2021484375,-344.4375
-179.0126953125,-345.634765625
-180.9482421875,-345.814453125
-181.62109375,-344.623046875
-181.5986328125,-342.208984375
-182.0595703125,-339.03125
-184.091796875,-335.5830078125
-188.0078125,-332.220703125
-193.10546875,-329.1640625
-197.9345703125,-326.544921875
-201.04296875,-324.4501953125
-201.6650390625,-322.9326171875
-200.083984375,-322.0205078125
-197.4189453125,-321.689453125
-195.0302734375,-321.802734375
-193.876953125,-322.099609375
-194.1357421875,-322.27734375
-195.234375,-322.1376953125
-196.2607421875,-321.703125
-196.478515625,-321.2001953125
-195.65234375,-320.943359375
-194.1298828125,-321.154296875
-192.60546875,-321.8046875
-191.7890625,-322.5595703125
-192.052734375,-322.87890625
-193.318359375,-322.2734375
-195.12890625,-320.58984375
-196.927734375,-318.1201171875
-198.291015625,-315.478515625
-199.0400390625,-313.3359375
-199.185546875,-312.166015625
-198.8056640625,-312.099609375
-198.021484375,-312.9208984375
-197.021484375,-314.14453125
-196.0791015625,-315.212890625
-195.453125,-315.697265625
-195.2392578125,-315.4423828125
-195.3193359375,-314.537109375
-195.41796875,-313.2314453125
-195.2919921875,-311.81640625
-194.9697265625,-310.54296875
-194.802734375,-309.564453125
-195.3125,-308.892578125
-196.8447265625,-308.427734375
-199.30859375,-308.0537109375
-202.1103515625,-307.7392578125
-204.392578125,-307.5810546875
-205.4169921875,-307.73046875
-204.90625,-308.2763671875
-203.189453125,-309.140625
-201.0380859375,-310.07421875
-199.3095703125,-310.7548828125
-198.552734375,-310.9482421875
-198.767578125,-310.6064453125
-199.4599609375,-309.8681640625
-199.9580078125,-308.9599609375
-199.8046875,-308.08203125
-199.00390625,-307.4072265625
-197.974609375,-307.115234375
-197.27734375,-307.392578125
-197.2490234375,-308.3447265625
-197.80078125,-309.84375
-198.466796875,-311.4853515625
-198.6748046875,-312.7548828125
-198.0751953125,-313.30078125
-196.7099609375,-313.146484375
-194.9482421875,-312.6953125
-193.2568359375,-312.505859375
-192.001953125,-313.005859375
-191.353515625,-314.2783203125
-191.29296875,-316.0498046875
-191.66796875,-317.857421875
-192.2705078125,-319.2666015625
-192.9072265625,-319.9921875
-193.4716796875,-319.8984375
-193.9921875,-319.013671875
-194.5830078125,-317.5966796875
-195.373046875,-316.1923828125
-196.3779296875,-315.5263671875
-197.4267578125,-316.2001953125
-198.1962890625,-318.3232421875
-198.3798828125,-321.359375
-197.857421875,-324.296875
-196.775390625,-326.07421875
-195.4169921875,-325.9677734375
-193.994140625,-323.7451171875
-192.4345703125,-319.4951171875
-190.2373046875,-313.3154296875
-186.4609375,-305.08203125
-179.8974609375,-294.451171875
-169.4072265625,-281.0556640625
-154.333984375,-264.732421875
-134.8056640625,-245.63671875
-111.810546875,-224.2880859375
-87.017578125,-201.611328125
-62.4140625,-179.0078125
-39.9208984375,-158.3212890625
-21.0625,-141.5537109375
-6.7744140625,-130.3681640625
2.681640625,-125.603515625
7.69140625,-127.0166015625
9.146484375,-133.390625
8.1767578125,-142.8955078125
5.892578125,-153.5302734375
3.2119140625,-163.5078125
0.8349609375,-171.5556640625
-0.69921875,-177.1142578125
-1.00390625,-180.365234375
0.029296875,-182.0751953125
2.083984375,-183.2421875
4.404296875,-184.6484375
6.0439453125,-186.552734375
6.263671875,-188.654296875
4.91015625,-190.373046875
2.4609375,-191.248046875
-0.236328125,-191.2353515625
-2.4052734375,-190.7255859375
-3.6611328125,-190.3427734375
-4.08203125,-190.6298828125
-4.0234375,-191.7470703125
-3.8564453125,-193.3505859375
-3.7802734375,-194.7314453125
-3.802734375,-195.173828125
-3.8232421875,-194.341796875
-3.771484375,-192.4619140625
-3.65234375,-190.21875
-3.51953125,-188.39453125
-3.3564453125,-187.4873046875
-2.9970703125,-187.474609375
-2.14453125,-187.8359375
-0.4794921875,-187.8115234375
2.1376953125,-186.7275390625
5.52734375,-184.296875
9.1494140625,-180.71484375
12.326171875,-176.6171875
14.5107421875,-172.8994140625
15.5322265625,-170.45703125
15.58203125,-169.880859375
15.015625,-171.1494140625
14.0712890625,-173.5361328125
12.7958984375,-175.8984375
11.1484375,-177.2080078125
9.203125,-177.0244140625
7.2802734375,-175.615234375
5.880859375,-173.7294921875
5.4130859375,-172.1328125
5.953125,-171.2001953125
7.13671875,-170.7255859375
8.3486328125,-170.064453125
8.994140625,-168.5244140625
8.806640625,-165.80859375
7.9453125,-162.2373046875
6.8984375,-158.6552734375
6.201171875,-156.0458984375
6.1640625,-155.048828125
6.7314453125,-155.6015625
7.5537109375,-156.9697265625
8.2734375,-158.1572265625
8.7431640625,-158.490234375
9.0986328125,-157.9921875
9.6298828125,-157.2998046875
10.5439453125,-157.1982421875
11.8212890625,-158.09375
13.24609375,-159.7412109375
14.5419921875,-161.412109375
15.5166015625,-162.3271484375
16.12890625,-162.091796875
16.48046875,-160.861328125
16.7822265625,-159.1845703125
17.294921875,-157.6591796875
18.2060546875,-156.61328125
19.51953125,-155.9970703125
21.0087890625,-155.521484375
22.279296875,-154.9609375
22.9345703125,-154.3671875
22.7587890625,-154.0439453125
21.8251953125,-154.3388671875
20.4677734375,-155.341796875
19.126953125,-156.7451171875
18.12109375,-157.908203125
17.53125,-158.14453125
17.205078125,-157.1103515625
16.8896484375,-155.01953125
16.388671875,-152.572265625
15.6748046875,-150.5927734375
14.8974609375,-149.658203125
14.3212890625,-149.8818359375
14.1572265625,-150.9404296875
14.443359375,-152.2490234375
14.970703125,-153.2138671875
15.392578125,-153.490234375
15.3896484375,-153.138671875
14.8310546875,-152.5830078125
13.8330078125,-152.390625
12.701171875,-152.9853515625
11.7783203125,-154.45703125
11.298828125,-156.5048828125
11.28125,-158.521484375
11.541015625,-159.814453125
11.8056640625,-159.9033203125
11.88671875,-158.7861328125
11.791015625,-157.01953125
11.7001953125,-155.5361328125
11.8037109375,-155.251953125
12.2080078125,-156.65625
12.888671875,-159.556640625
13.7763671875,-163.1201171875
14.8349609375,-166.216796875
16.0517578125,-167.9580078125
17.384765625,-168.16015625
18.6982421875,-167.458984375
19.7666015625,-166.9775390625
20.3193359375,-167.7197265625
20.1455078125,-170.0576171875
19.203125,-173.5869140625
17.67578125,-177.42578125
15.908203125,-180.7392578125
14.287109375,-183.19140625
13.10546875,-185.09765625
12.51171875,-187.1806640625
12.4765625,-190.1298828125
12.8388671875,-194.158203125
13.3349609375,-198.8271484375
13.6689453125,-203.232421875
13.5791015625,-206.4404296875
12.953125,-207.93359375
11.8603515625,-207.8408203125
10.5849609375,-206.8544921875
9.501953125,-205.8837890625
8.916015625,-205.6201171875
8.8720703125,-206.2099609375
9.1328125,-207.244140625
9.30078125,-208.068359375
9.0126953125,-208.2509765625
8.162109375,-207.8681640625
6.9228515625,-207.4248046875
5.685546875,-207.431640625
4.8837890625,-208.0224609375
4.8232421875,-208.8623046875
5.5830078125,-209.4228515625
6.9658203125,-209.390625
8.55859375,-208.8828125
9.8369140625,-208.3740234375
10.3544921875,-208.345703125
9.9169921875,-208.9638671875
8.6796875,-209.9638671875
7.0986328125,-210.810546875
5.7470703125,-211.0234375
5.064453125,-210.375
5.1845703125,-208.9169921875
5.8740234375,-206.865234375
6.6376953125,-204.4892578125
6.9453125,-202.0546875
6.474609375,-199.80859375
5.263671875,-197.9736328125
3.6591796875,-196.6865234375
2.1533203125,-195.962890625
1.1357421875,-195.7197265625
0.71484375,-195.8232421875
0.7060546875,-196.138671875
0.7412109375,-196.5283203125
0.4921875,-196.8447265625
-0.1484375,-196.9453125
-0.9384765625,-196.7568359375
-1.3720703125,-196.345703125
-0.9296875,-195.908203125
0.560546875,-195.6884765625
2.685546875,-195.8134765625
4.5478515625,-196.2275390625
5.177734375,-196.703125
4.0732421875,-197.013671875
1.494140625,-197.0703125
-1.642578125,-196.9736328125
-4.205078125,-196.9365234375
-5.384765625,-197.146484375
-5.01953125,-197.6611328125
-3.572265625,-198.3916015625
-1.82421875,-199.1953125
-0.4765625,-199.9580078125
0.13671875,-200.5927734375
0.0810546875,-200.9736328125
-0.359375,-200.9140625
-0.9423828125,-200.265625
-1.681640625,-199.0732421875
-2.84375,-197.595703125
-4.7236328125,-196.1904296875
-7.3583984375,-195.1337890625
-10.3623046875,-194.5078125
-13.0556640625,-194.2275390625
-14.78515625,-194.087890625
-15.2177734375,-193.8408203125
-14.43359375,-193.310546875
-12.8095703125,-192.509765625
-10.830078125,-191.68359375
-8.943359375,-191.1962890625
-7.47265625,-191.3291015625
-6.6259765625,-192.138671875
-6.4853515625,-193.431640625
-6.98828125,-194.85546875
-7.9228515625,-196.0107421875
-8.99609375,-196.611328125
-9.9072265625,-196.611328125
-10.455078125,-196.2431640625
-10.5751953125,-195.8779296875
-10.3388671875,-195.8701171875
-9.9052734375,-196.3837890625
-9.4599609375,-197.341796875
-9.1552734375,-198.42578125
-9.05078125,-199.1669921875
-9.0888671875,-199.1630859375
-9.126953125,-198.3330078125
-8.9912109375,-197.0830078125
-8.578125,-196.1474609375
-7.875,-196.1708984375
-6.9833984375,-197.29296875
-6.0810546875,-199.0380859375
-5.3935546875,-200.56640625
-5.14453125,-201.123046875
-5.455078125,-200.423828125
-6.271484375,-198.806640625
-7.3642578125,-197.0849609375
-8.4384765625,-196.1767578125
-9.2900390625,-196.6279296875
-9.869140625,-198.333984375
-10.2177734375,-200.5634765625
-10.314453125,-202.294921875
-10.0419921875,-202.6748046875
-9.236328125,-201.3828125
-7.8310546875,-198.7626953125
-6.0185546875,-195.64453125
-4.2685546875,-192.9736328125
-3.201171875,-191.431640625
-3.275390625,-191.19140625
-4.515625,-191.9140625
-6.4853515625,-192.92578125
-8.5029296875,-193.5419921875
-9.9638671875,-193.3662109375
-10.5732421875,-192.46484375
-10.408203125,-191.359375
-9.78515625,-190.775390625
-9.083984375,-191.318359375
-8.5419921875,-193.1923828125
-8.16015625,-196.134765625
-7.73828125,-199.55859375
-7.044921875,-202.7744140625
-6.005859375,-205.17578125
-4.7880859375,-206.3662109375
-3.7177734375,-206.2529296875
-3.1201171875,-205.103515625
-3.193359375,-203.517578125
-3.9228515625,-202.2744140625
-5.1123046875,-202.06640625
-6.4716796875,-203.234375
-7.7666015625,-205.5859375
-8.9404296875,-208.4599609375
-10.12890625,-211.0439453125
-11.51953125,-212.7548828125
-13.193359375,-213.4462890625
-15.044921875,-213.35546875
-16.818359375,-212.8837890625
-18.208984375,-212.4033203125
-18.9716796875,-212.1435546875
-18.9765625,-212.166015625
-18.2763671875,-212.37109375
-17.1171875,-212.6083984375
-15.8740234375,-212.8056640625
-14.95703125,-213.05859375
-14.6611328125,-213.5390625
-15.0244140625,-214.3359375
-15.791015625,-215.3134765625
-16.5009765625,-216.09765625
-16.7802734375,-216.1982421875
-16.6201171875,-215.2275390625
-16.408203125,-213.1455078125
-16.6474609375,-210.4150390625
-17.5458984375,-207.9091796875
-18.7822265625,-206.55859375
-19.62890625,-206.90625
-19.3837890625,-208.810546875
-17.7958984375,-211.541015625
-15.25,-214.1279296875
-12.5634765625,-215.8115234375
-10.57421875,-216.341796875
-9.7236328125,-216.0166015625
-9.9375,-215.470703125
-10.775390625,-215.2998046875
-11.7060546875,-215.7373046875
-12.376953125,-216.544921875
-12.6982421875,-217.17578125
-12.826171875,-217.1220703125
-12.99609375,-216.203125
-13.326171875,-214.6640625
-13.7099609375,-213.076171875
-13.8515625,-212.0849609375
-13.4677734375,-212.0947265625
-12.5029296875,-213.005859375
-11.185546875,-214.2041015625
-9.9267578125,-214.861328125
-9.1083984375,-214.380859375
-8.8896484375,-212.72265625
-9.1298828125,-210.4111328125
-9.42578125,-208.255859375
-9.3232421875,-206.953125
-8.560546875,-206.7451171875
-7.2490234375,-207.3232421875
-5.8779296875,-208.0263671875
-5.0517578125,-208.271484375
-5.2255859375,-207.9091796875
-6.4892578125,-207.271484375
-8.533203125,-206.8798828125
-10.7763671875,-207.0556640625
-12.59375,-207.7197265625
-13.576171875,-208.4853515625
-13.666015625,-208.951171875
-13.1708984375,-208.9814453125
-12.5712890625,-208.806640625
-12.33984375,-208.8740234375
-12.791015625,-209.576171875
-13.994140625,-211.0029296875
-15.7216796875,-212.8916015625
-17.4990234375,-214.7744140625
-18.7724609375,-216.1953125
-19.13671875,-216.8515625
-18.46875,-216.6640625
-16.9423828125,-215.77734375
-14.96484375,-214.55859375
-13.0751953125,-213.478515625
-11.78515625,-212.9404296875
-11.3837890625,-213.091796875
-11.828125,-213.7900390625
-12.783203125,-214.6630859375
-13.83984375,-215.224609375
-14.7255859375,-215.0185546875
-15.3955078125,-213.814453125
-15.9443359375,-211.7451171875
-16.4560546875,-209.3349609375
-16.908203125,-207.314453125
-17.201171875,-206.3310546875
-17.2255859375,-206.68359375
-16.9140625,-208.19140625
-16.3095703125,-210.267578125
-15.580078125,-212.138671875
-14.990234375,-213.1552734375
-14.810546875,-213.0302734375
-15.1982421875,-211.9287109375
-16.1396484375,-210.3212890625
-17.4345703125,-208.712890625
-18.7900390625,-207.3623046875
-19.953125,-206.162109375
-20.82421875,-204.705078125
-21.50390625,-202.3623046875
-22.1572265625,-198.2041015625
-22.8095703125,-190.958984375
-23.4033203125,-179.548828125
-24.21484375,-164.107421875
-26.076171875,-146.3603515625
-29.822265625,-128.36328125
-35.162109375,-110.0732421875
-40.1474609375,-87.599609375
-42.044921875,-53.962890625
-39.23046875,-2.427734375
-32.6474609375,69.5869140625
-25.552734375,158.708984375
-21.580078125,257.1689453125
-22.2470703125,356.517578125
-25.6953125,450.9833984375
-27.53515625,538.435546875
-23.435546875,618.791015625
-11.755859375,691.5888671875
5.56640625,754.9697265625
24.2900390625,806.8525390625
40.3759765625,846.94140625
51.8310546875,877.4951171875
59.0166015625,902.177734375
63.59375,923.9814453125
67.1533203125,943.7919921875
70.375,960.2744140625
72.9013671875,970.8310546875
73.7353515625,972.9697265625
71.94921875,965.517578125
67.3935546875,949.205078125
61.0439453125,926.29296875
54.6904296875,899.423828125
50.1337890625,870.3369140625
48.369140625,839.337890625
49.2763671875,805.8330078125
51.857421875,769.421875
54.7041015625,730.6552734375
56.50390625,690.923828125
56.3828125,651.7646484375
54.1044921875,614.197265625
50.0087890625,578.5478515625
44.82421875,544.619140625
39.37890625,511.927734375
34.384765625,479.8271484375
30.3505859375,447.6181640625
27.587890625,414.6962890625
26.140625,380.7294921875
25.7490234375,345.7333984375
25.9033203125,310.02734375
26.0400390625,274.1396484375
25.767578125,238.771484375
24.9609375,204.751953125
23.6767578125,172.9560546875
22.0556640625,144.10546875
20.2890625,118.5732421875
18.640625,96.25
17.447265625,76.623046875
17.0205078125,59.037109375
17.4814453125,42.9912109375
18.6181640625,28.294921875
19.8701171875,15.00390625
20.5234375,3.2421875
20.0068359375,-6.9521484375
18.1630859375,-15.654296875
15.2705078125,-23.052734375
11.8828125,-29.4609375
8.6064453125,-35.3154296875
5.9365234375,-41.064453125
4.1923828125,-46.9482421875
3.501953125,-52.8857421875
3.7978515625,-58.58203125
4.7919921875,-63.7763671875
6.0517578125,-68.3935546875
7.1435546875,-72.517578125
7.7666015625,-76.267578125
7.8154296875,-79.759765625
7.3486328125,-83.1005859375
6.5263671875,-86.3583984375
5.5595703125,-89.4970703125
4.640625,-92.3564453125
3.8486328125,-94.74609375
3.0908203125,-96.56640625
2.1494140625,-97.8515625
0.875,-98.720703125
-0.640625,-99.310546875
-2.0546875,-99.7353515625
-2.923828125,-100.087890625
-2.9755859375,-100.4169921875
-2.25390625,-100.7158203125
-1.1201171875,-100.9169921875
-0.123046875,-100.9423828125
0.2255859375,-100.7890625
-0.3720703125,-100.55859375
-1.81640625,-100.4130859375
-3.61328125,-100.44921875
-5.0693359375,-100.6279296875
-5.6748046875,-100.814453125
-5.3798828125,-100.900390625
-4.630859375,-100.9111328125
-4.0576171875,-101.0146484375
-4.0830078125,-101.43359375
-4.6533203125,-102.3349609375
-5.3388671875,-103.732421875
-5.673828125,-105.4345703125
-5.5634765625,-107.0615234375
-5.37890625,-108.162109375
-5.703125,-108.4267578125
-6.8720703125,-107.876953125
-8.673828125,-106.9013671875
-10.4150390625,-106.0810546875
-11.32421875,-105.919921875
-10.986328125,-106.6376953125
-9.5849609375,-108.1015625
-7.7431640625,-109.880859375
-6.1396484375,-111.4140625
-5.138671875,-112.232421875
-4.6728515625,-112.166015625
-4.3955078125,-111.416015625
-3.9990234375,-110.4453125
-3.3779296875,-109.7529296875
-2.64453125,-109.6923828125
-1.9736328125,-110.396484375
-1.4736328125,-111.76953125
-1.1455078125,-113.5166015625
-0.9814453125,-115.23828125
-1.041015625,-116.5859375
-1.4970703125,-117.38671875
-2.576171875,-117.6884765625
-4.3662109375,-117.69921875
-6.6943359375,-117.693359375
-9.1220703125,-117.9306640625
-11.142578125,-118.58203125
-12.3818359375,-119.67578125
-12.7216796875,-121.0791015625
-12.3125,-122.564453125
-11.4697265625,-123.904296875
-10.591796875,-124.9736328125
-10.0068359375,-125.77734375
-9.884765625,-126.4130859375
-10.0986328125,-126.953125
-10.2802734375,-127.35546875
-9.9765625,-127.4521484375
-8.91015625,-127.083984375
-7.17578125,-126.3076171875
-5.2958984375,-125.4873046875
-4.0595703125,-125.140625
-4.15234375,-125.6435546875
-5.814453125,-126.994140625
-8.685546875,-128.833984375
-11.953125,-130.6640625
-14.716796875,-132.0791015625
-16.3037109375,-132.873046875
-16.4697265625,-133.0234375
-15.4306640625,-132.6337890625
-13.7412109375,-131.873046875
-12.0859375,-130.9443359375
-10.984375,-130.033203125
-10.517578125,-129.2724609375
-10.3359375,-128.7080078125
-9.908203125,-128.298828125
-8.8798828125,-127.9697265625
-7.28515625,-127.66796875
-5.537109375,-127.3935546875
-4.1923828125,-127.15625
-3.685546875,-126.943359375
-4.1201171875,-126.7412109375
-5.291015625,-126.6171875
-6.8251953125,-126.732421875
-8.3857421875,-127.248046875
-9.779296875,-128.2158203125
-10.958984375,-129.5380859375
-11.9765625,-131.0859375
-12.890625,-132.82421875
-13.7099609375,-134.81640625
-14.3212890625,-137.0947265625
-14.4931640625,-139.51953125
-13.982421875,-141.7587890625
-12.6767578125,-143.421875
-10.7265625,-144.2314453125
-8.5400390625,-144.171875
-6.7021484375,-143.4912109375
-5.8203125,-142.595703125
-6.34375,-141.8662109375
-8.3828125,-141.541015625
-11.6083984375,-141.662109375
-15.2783203125,-142.0791015625
-18.4697265625,-142.494140625
-20.384765625,-142.5380859375
-20.6845703125,-141.98828125
-19.6259765625,-140.9521484375
-17.9619140625,-139.9111328125
-16.572265625,-139.490234375
-16.09765625,-140.0947265625
-16.650390625,-141.6767578125
-17.8369140625,-143.7763671875
-18.9951171875,-145.787109375
-19.5234375,-147.2548828125
-19.1455078125,-148.0380859375
-18.0009765625,-148.2978515625
-16.5322265625,-148.34375
-15.2783203125,-148.45703125
-14.67578125,-148.7578125
-14.9169921875,-149.189453125
-15.9775390625,-149.572265625
-17.6650390625,-149.6640625
-19.6982421875,-149.244140625
-21.7333984375,-148.2197265625
-23.3828125,-146.734375
-24.2607421875,-145.1669921875
-24.1201171875,-143.9658203125
-22.9921875,-143.41015625
-21.2001953125,-143.482421875
-19.2900390625,-143.9482421875
-17.859375,-144.5458984375
-17.3466796875,-145.1513671875
-17.908203125,-145.7998046875
-19.3173828125,-146.611328125
-21.0849609375,-147.673828125
-22.6357421875,-148.90625
-23.5390625,-150.0224609375
-23.6513671875,-150.5771484375
-23.1630859375,-150.1884765625
-22.4990234375,-148.7685546875
-22.1708984375,-146.6298828125
-22.56640625,-144.392578125
-23.8154296875,-142.703125
-25.7412109375,-141.9423828125
-27.91015625,-142.041015625
-29.74609375,-142.5029296875
-30.7021484375,-142.6552734375
-30.4306640625,-141.970703125
-28.9375,-140.3173828125
-26.6572265625,-137.9794921875
-24.349609375,-135.4658203125
-22.828125,-133.291015625
-22.6123046875,-131.8046875
-23.7177734375,-131.125
-25.69140625,-131.1181640625
-27.798828125,-131.4501953125
-29.333984375,-131.75
-29.8359375,-131.763671875
-29.2529296875,-131.4404296875
-27.8974609375,-130.8486328125
-26.275390625,-130.03125
-24.84375,-128.904296875
-23.8330078125,-127.326171875
-23.22265625,-125.236328125
-22.8525390625,-122.7998046875
-22.5419921875,-120.3974609375
-22.1865234375,-118.484375
-21.755859375,-117.33984375
-21.23828125,-116.8876953125
-20.5966796875,-116.6923828125
-19.8408203125,-116.220703125
-19.16796875,-115.154296875
-18.96875,-113.59765625
-19.6611328125,-111.96484375
-21.3671875,-110.70703125
-23.662109375,-110.0517578125
-25.6640625,-109.931640625
-26.4296875,-110.095703125
-25.470703125,-110.28515625
-23.076171875,-110.3759765625
-20.1982421875,-110.408203125
-17.9775390625,-110.48828125
-17.1787109375,-110.701171875
-17.8310546875,-111.0810546875
-19.2978515625,-111.65234375
-20.6669921875,-112.458984375
-21.2197265625,-113.4970703125
-20.755859375,-114.65625
-19.6494140625,-115.7041015625
-18.6787109375,-116.3779296875
-18.6240234375,-116.5478515625
-19.892578125,-116.2939453125
-22.2451171875,-115.869140625
-24.845703125,-115.5595703125
-26.6220703125,-115.517578125
-26.8125,-115.724609375
-25.37109375,-116.0927734375
-23.0087890625,-116.626953125
-20.8291015625,-117.537109375
-19.771484375,-119.15625
-20.1962890625,-121.7060546875
-21.8056640625,-125.0703125
-23.896484375,-128.7373046875
-25.74609375,-132.013671875
-26.92578125,-134.3369140625
-27.439453125,-135.51171875
-27.6123046875,-135.732421875
-27.916015625,-135.4091796875
-28.705078125,-134.94140625
-30.05078125,-134.5654296875
-31.693359375,-134.3291015625
-33.1533203125,-134.171875
-33.9560546875,-134.0361328125
-33.80859375,-133.9345703125
-32.724609375,-133.9443359375
-30.9794921875,-134.1484375
-28.982421875,-134.556640625
-27.173828125,-135.0380859375
-25.9638671875,-135.302734375
-25.6875,-134.951171875
-26.478515625,-133.64453125
-28.1220703125,-131.34765625
-30.0205078125,-128.4677734375
-31.41796875,-125.7900390625
-31.7939453125,-124.1826171875
-31.10546875,-124.2470703125
-29.7470703125,-126.09375
-28.2958984375,-129.30078125
-27.2021484375,-133.0380859375
-26.69140625,-136.326171875
-26.822265625,-138.3447265625
-27.5888671875,-138.7294921875
-28.92578125,-137.7197265625
-30.58984375,-136.044921875
-32.0869140625,-134.580078125
-32.830078125,-133.90234375
-32.412109375,-134.029296875
-30.873046875,-134.4609375
-28.7177734375,-134.5029296875
-26.6748046875,-133.71875
-25.373046875,-132.2060546875
-25.076171875,-130.556640625
-25.66796875,-129.5224609375
-26.79296875,-129.58984375
-28.048828125,-130.755859375
-29.1220703125,-132.5869140625
-29.8447265625,-134.4658203125
-30.16796875,-135.8662109375
-30.1435546875,-136.5166015625
-29.875,-136.4580078125
-29.4775390625,-135.99609375
-29.0458984375,-135.580078125
-28.6474609375,-135.6357421875
-28.3095703125,-136.388671875
-28.029296875,-137.751953125
-27.7744140625,-139.3583984375
-27.5087890625,-140.734375
-27.2109375,-141.546875
-26.931640625,-141.73046875
-26.802734375,-141.419921875
-26.9814453125,-140.7724609375
-27.572265625,-139.826171875
-28.5546875,-138.541015625
-29.759765625,-136.9638671875
-30.9423828125,-135.36328125
-31.8427734375,-134.197265625
-32.259765625,-133.919921875
-32.14453125,-134.705078125
-31.669921875,-136.2958984375
-31.2265625,-138.0537109375
-31.2548828125,-139.21875
-31.98046875,-139.234375
-33.248046875,-137.9736328125
-34.5205078125,-135.78125
-35.1220703125,-133.3310546875
-34.5830078125,-131.3994140625
-32.9482421875,-130.58984375
-30.798828125,-131.12109375
-28.96875,-132.77734375
-28.05859375,-135.05859375
-28.0791015625,-137.4599609375
-28.4716796875,-139.6708984375
-28.5146484375,-141.5634765625
-27.8154296875,-143.0244140625
-26.576171875,-143.83203125
-25.5009765625,-143.728515625
-25.3955078125,-142.59765625
-26.720703125,-140.640625
-29.3203125,-138.3671875
-32.478515625,-136.4296875
-35.232421875,-135.353515625
-36.85546875,-135.318359375
-37.212890625,-136.1025390625
-36.82421875,-137.220703125
-36.6171875,-138.20703125
-37.4736328125,-138.8515625
-39.7607421875,-139.2763671875
-43.095703125,-139.775390625
-46.4326171875,-140.5830078125
-48.55078125,-141.728515625
-48.625,-143.03125
-46.646484375,-144.263671875
-43.4013671875,-145.3076171875
-40.0546875,-146.2109375
-37.6337890625,-147.0546875
-36.6552734375,-147.751953125
-37.095703125,-147.958984375
-38.572265625,-147.2548828125
-40.62109375,-145.5244140625
-42.8544921875,-143.2060546875
-44.9697265625,-141.19921875
-46.6728515625,-140.4228515625
-47.650390625,-141.3310546875
-47.6064453125,-143.6240234375
-46.3916015625,-146.3818359375
-44.0888671875,-148.4873046875
-41.013671875,-149.177734375
-37.6669921875,-148.408203125
-34.63671875,-146.85546875
-32.513671875,-145.5712890625
-31.767578125,-145.4560546875
-32.5966796875,-146.849609375
-34.7802734375,-149.4228515625
-37.6875,-152.392578125
-40.4541015625,-154.8818359375
-42.330078125,-156.2705078125
-42.98046875,-156.4150390625
-42.5947265625,-155.650390625
-41.7529296875,-154.5966796875
-41.1171875,-153.865234375
-41.080078125,-153.8046875
-41.6435546875,-154.4052734375
-42.453125,-155.341796875
-43.01171875,-156.1337890625
-42.8759765625,-156.365234375
-41.7646484375,-155.880859375
-39.61328125,-154.802734375
-36.619140625,-153.369140625
-33.224609375,-151.732421875
-30.080078125,-149.90625
-27.84375,-147.869140625
-26.962890625,-145.6884765625
-27.4677734375,-143.5673828125
-28.9345703125,-141.7841796875
-30.6787109375,-140.5791015625
-32.046875,-140.0673828125
-32.6943359375,-140.2109375
-32.716796875,-140.8369140625
-32.4970703125,-141.751953125
-32.439453125,-142.8447265625
-32.7216796875,-144.16796875
-33.2509765625,-145.8583984375
-33.7978515625,-147.94921875
-34.1748046875,-150.2109375
-34.333984375,-152.162109375
-34.337890625,-153.2841796875
-34.3095703125,-153.314453125
-34.3623046875,-152.44921875
-34.5576171875,-151.2900390625
-34.904296875,-150.5078125
-35.3447265625,-150.44921875
-35.7998046875,-150.9453125
-36.158203125,-151.4970703125
-36.3310546875,-151.6376953125
-36.2421875,-151.21875
-35.83984375,-150.404296875
-35.083984375,-149.4873046875
-33.94921875,-148.669921875
-32.4853515625,-147.9912109375
-30.87890625,-147.3515625
-29.4453125,-146.595703125
-28.5009765625,-145.64453125
-28.2236328125,-144.5751953125
-28.53125,-143.6572265625
-29.1376953125,-143.240234375
-29.646484375,-143.541015625
-29.7197265625,-144.4521484375
-29.1728515625,-145.501953125
-28.0458984375,-146.044921875
-26.6142578125,-145.578125
-25.2998046875,-144.0634765625
-24.51953125,-142.01171875
-24.5234375,-140.2802734375
-25.3115234375,-139.6123046875
-26.6728515625,-140.2373046875
-28.2978515625,-141.8134765625
-29.8876953125,-143.6787109375
-31.1728515625,-145.2919921875
-31.9296875,-146.4755859375
-31.9892578125,-147.4326171875
-31.287109375,-148.5634765625
-29.943359375,-150.23046875
-28.3056640625,-152.54296875
-26.89453125,-155.2724609375
-26.2392578125,-157.931640625
-26.6435546875,-159.982421875
-28.0234375,-161.0830078125
-29.9208984375,-161.2255859375
-31.66796875,-160.7412109375
-32.6396484375,-160.1513671875
-32.470703125,-159.939453125
-31.1650390625,-160.322265625
-29.0625,-161.1455078125
-26.693359375,-161.966796875
-24.5615234375,-162.2939453125
-22.9892578125,-161.849609375
-22.056640625,-160.712890625
-21.7265625,-159.2548828125
-21.9072265625,-157.958984375
-22.4990234375,-157.185546875
-23.3857421875,-157.04296875
-24.3994140625,-157.35546875
-25.3369140625,-157.73828125
-25.9921875,-157.7392578125
-26.1943359375,-156.923828125
-25.8681640625,-154.8525390625
-25.08203125,-151.0009765625
-24.033203125,-144.78125
-23.0107421875,-135.646484375
-22.33984375,-123.1689453125
-22.3837890625,-106.98828125
-23.533203125,-86.67578125
-26.16796875,-61.8359375
-30.5830078125,-32.529296875
-36.8828125,0.1142578125
-44.9150390625,33.4541015625
-54.302734375,63.5205078125
-64.4755859375,86.0068359375
-74.7119140625,97.705078125
-84.138671875,97.798828125
-91.7958984375,88.2373046875
-96.759765625,73.0205078125
-98.4052734375,56.697265625
-96.70703125,42.8759765625
-92.439453125,33.3525390625
-87.05078125,28.103515625
-82.18359375,25.8515625
-79.0517578125,24.8564453125
-78.015625,23.6201171875
-78.5771484375,21.345703125
-79.77734375,18.052734375
-80.7529296875,14.380859375
-81.130859375,11.1875
-81.1005859375,9.1376953125
-81.1337890625,8.482421875
-81.6123046875,9.017578125
-82.5625,10.2158203125
-83.6474609375,11.4287109375
-84.40625,12.1005859375
-84.5185546875,11.890625
-83.9580078125,10.6865234375
-82.9521484375,8.5888671875
-81.8671875,5.8974609375
-81.0751953125,3.1240234375
-80.8466796875,0.859375
-81.28515625,-0.4169921875
-82.3544921875,-0.5361328125
-83.91015625,0.3271484375
-85.7451171875,1.74609375
-87.591796875,3.20703125
-89.1689453125,4.26171875
-90.2548828125,4.650390625
-90.7353515625,4.361328125
-90.59375,3.591796875
-89.8935546875,2.63671875
-88.8115234375,1.7548828125
-87.6806640625,1.078125
-86.9560546875,0.611328125
-87.07421875,0.2802734375
-88.236328125,-0.0166015625
-90.26953125,-0.349609375
-92.630859375,-0.736328125
-94.595703125,-1.19921875
-95.5654296875,-1.82421875
-95.322265625,-2.7822265625
-94.138671875,-4.220703125
-92.6357421875,-6.0703125
-91.4345703125,-7.94140625
-90.86328125,-9.162109375
-90.8427734375,-8.98046875
-91.0576171875,-6.90625
-91.2001953125,-2.9951171875
-91.1494140625,2.0595703125
-90.9990234375,7.19921875
-90.947265625,11.4736328125
-91.130859375,14.4990234375
-91.5107421875,16.556640625
-91.9111328125,18.2666015625
-92.154296875,20.109375
-92.2373046875,22.1142578125
-92.392578125,23.896484375
-92.95703125,25.01953125
-94.1689453125,25.3115234375
-96.0087890625,24.986328125
-98.1552734375,24.5
-100.1357421875,24.234375
-101.490234375,24.255859375
-101.9755859375,24.30859375
-101.6357421875,24.025390625
-100.744140625,23.1748046875
-99.626953125,21.7666015625
-98.48828125,19.984375
-97.3447265625,18.068359375
-96.11328125,16.2451171875
-94.736328125,14.6826171875
-93.322265625,13.4619140625
-92.1015625,12.57421875
-91.30859375,11.96875
-91.037109375,11.6171875
-91.146484375,11.5234375
-91.3466796875,11.6484375
-91.373046875,11.810546875
-91.1669921875,11.69140625
-90.9296875,10.94140625
-91.0166015625,9.40234375
-91.7119140625,7.3115234375
-93.0390625,5.3125
-94.7158203125,4.2109375
-96.244140625,4.521484375
-97.14453125,6.115234375
-97.177734375,8.2041015625
-96.427734375,9.736328125
-95.25,9.9384765625
-94.048828125,8.7177734375
-93.1376953125,6.7119140625
-92.68359375,4.9892578125
-92.7783203125,4.544921875
-93.509765625,5.83984375
-94.900390625,8.55859375
-96.7890625,11.7333984375
-98.779296875,14.1845703125
-100.3291015625,15.0751953125
-101.0009765625,14.2861328125
-100.677734375,12.423828125
-99.59765625,10.46484375
-98.19140625,9.26953125
-96.845703125,9.2294921875
-95.7734375,10.2470703125
-95.025390625,11.9423828125
-94.626953125,13.8974609375
-94.6220703125,15.7705078125
-95.0029296875,17.2529296875
-95.642578125,18.0419921875
-96.3046875,17.92578125
-96.76953125,16.931640625
-96.953125,15.4072265625
-96.93359375,13.9248046875
-96.83984375,13.03125
-96.7578125,13.0166015625
-96.69140625,13.791015625
-96.623046875,14.927734375
-96.556640625,15.8330078125
-96.51953125,15.9765625
-96.5107421875,15.0478515625
-96.4765625,12.99609375
-96.345703125,9.9453125
-96.107421875,6.1220703125
-95.841796875,1.876953125
-95.6748046875,-2.23828125
-95.67578125,-5.4697265625
-95.7978515625,-7.0908203125
-95.9384765625,-6.76171875
-96.0458984375,-4.8359375
-96.2138671875,-2.33203125
-96.6025390625,-0.52734375
-97.3154296875,-0.3115234375
-98.2880859375,-1.7021484375
-99.33203125,-3.8427734375
-100.1982421875,-5.48046875
-100.6728515625,-5.6640625
-100.640625,-4.1943359375
-100.099609375,-1.6123046875
-99.1904296875,1.181640625
-98.1572265625,3.353515625
-97.287109375,4.3896484375
-96.8310546875,4.1494140625
-96.9345703125,2.8388671875
-97.5771484375,0.8916015625
-98.56640625,-1.169921875
-99.583984375,-2.9345703125
-100.3037109375,-4.2333984375
-100.5234375,-5.1787109375
-100.234375,-6.0908203125
-99.619140625,-7.33203125
-98.95703125,-9.0869140625
-98.501953125,-11.19140625
-98.3916015625,-13.126953125
-98.60546875,-14.2314453125
-99.0556640625,-14.017578125
-99.654296875,-12.41796875
-100.34765625,-9.82421875
-101.0517578125,-6.9775390625
-101.607421875,-4.73046875
-101.826171875,-3.78125
-101.58203125,-4.416015625
-100.9296875,-6.376953125
-100.09375,-8.943359375
-99.384765625,-11.212890625
-99.0625,-12.4013671875
-99.267578125,-12.0927734375
-100.00390625,-10.3818359375
-101.1162109375,-7.8876953125
-102.318359375,-5.591796875
-103.2314453125,-4.4658203125
-103.51171875,-5.0361328125
-102.9560546875,-7.1259765625
-101.6064453125,-9.9150390625
-99.7080078125,-12.2919921875
-97.591796875,-13.3056640625
-95.544921875,-12.5498046875
-93.7470703125,-10.3173828125
-92.328125,-7.4658203125
-91.43359375,-5.0068359375
-91.2421875,-3.61328125
-91.8544921875,-3.33984375
-93.138671875,-3.70703125
-94.66015625,-4.05859375
-95.8232421875,-3.91796875
-96.115234375,-3.150390625
-95.400390625,-1.9765625
-94.0126953125,-0.849609375
-92.6396484375,-0.2626953125
-91.9892578125,-0.5263671875
-92.4609375,-1.5888671875
-93.966796875,-3.0537109375
-96.0029296875,-4.3486328125
-97.935546875,-4.986328125
-99.296875,-4.77734375
-99.951171875,-3.8994140625
-100.0791015625,-2.8037109375
-100.033203125,-1.9306640625
-100.1826171875,-1.4208984375
-100.845703125,-0.98828125
-102.2294921875,-0.134765625
-104.3642578125,1.4677734375
-107.013671875,3.7001953125
-109.67578125,6.0068359375
-111.6689453125,7.6796875
-112.42578125,8.1875
-111.76953125,7.400390625
-110.0673828125,5.6025390625
-108.1044921875,3.3916015625
-106.70703125,1.44921875
-106.3486328125,0.2666015625
-106.986328125,-0.0419921875
-108.220703125,0.240234375
-109.6591796875,0.6396484375
-111.16796875,0.7734375
-112.859375,0.5283203125
-114.861328125,0.072265625
-117.0537109375,-0.359375
-119.0400390625,-0.6650390625
-120.3125,-1.0078125
-120.5634765625,-1.693359375
-119.8603515625,-2.9599609375
-118.587890625,-4.7890625
-117.2001953125,-6.8720703125
-116.005859375,-8.740234375
-115.1337890625,-9.9658203125
-114.65625,-10.34765625
-114.705078125,-9.998046875
-115.447265625,-9.328125
-116.89453125,-8.8857421875
-118.7490234375,-9.1396484375
-120.4228515625,-10.2646484375
-121.244140625,-12.04296875
-120.8134765625,-13.9541015625
-119.220703125,-15.375
-117.0537109375,-15.8125
-115.08203125,-15.0712890625
-113.900390625,-13.3173828125
-113.625,-10.9658203125
-113.923828125,-8.4736328125
-114.2431640625,-6.138671875
-114.1796875,-4.03125
-113.685546875,-2.083984375
-113.072265625,-0.271484375
-112.7763671875,1.2685546875
-113.04296875,2.25
-113.7265625,2.4111328125
-114.3212890625,1.7392578125
-114.2578125,0.5791015625
-113.2490234375,-0.4892578125
-111.4384765625,-0.9296875
-109.326171875,-0.509765625
-107.5087890625,0.6123046875
-106.453125,1.9951171875
-106.3837890625,3.1318359375
-107.251953125,3.6611328125
-108.8212890625,3.5166015625
-110.7353515625,2.9912109375
-112.578125,2.62890625
-113.9091796875,2.9384765625
-114.375,4.0322265625
-113.8388671875,5.453125
-112.4560546875,6.314453125
-110.609375,5.7021484375
-108.669921875,2.9951171875
-106.7607421875,-2.091796875
-104.5849609375,-9.7275390625
-101.48828125,-20.177734375
-96.7548828125,-33.8154296875
-89.982421875,-50.9443359375
-81.455078125,-71.5224609375
-72.244140625,-94.962890625
-63.935546875,-120.0849609375
-58,-145.2275390625
-55.134765625,-168.455078125
-54.9580078125,-187.8154296875
-56.244140625,-201.685546875
-57.5947265625,-209.203125
-58.103515625,-210.6650390625
-57.6611328125,-207.6171875
-56.7744140625,-202.48828125
-56.11328125,-197.833984375
-56.0966796875,-195.505859375
-56.7470703125,-196.138671875
-57.7509765625,-199.107421875
-58.6884765625,-202.9560546875
-59.181640625,-206.0908203125
-58.9970703125,-207.4365234375
-58.0693359375,-206.8291015625
-56.5458984375,-204.9921875
-54.7275390625,-203.1640625
-52.9814453125,-202.5595703125
-51.6171875,-203.8955078125
-50.7685546875,-207.107421875
-50.423828125,-211.3671875
-50.49609375,-215.4140625
-50.8701171875,-218.087890625
-51.3896484375,-218.8251953125
-51.8330078125,-217.8291015625
-51.9931640625,-215.9013671875
-51.765625,-214.0361328125
-51.181640625,-213.029296875
-50.3525390625,-213.2431640625
-49.369140625,-214.5859375
-48.244140625,-216.6103515625
-46.931640625,-218.701171875
-45.41796875,-220.263671875
-43.826171875,-220.8779296875
-42.466796875,-220.4150390625
-41.69140625,-219.0517578125
-41.7158203125,-217.19140625
-42.4658203125,-215.298828125
-43.6142578125,-213.73828125
-44.7392578125,-212.7001953125
-45.52734375,-212.25
-45.87109375,-212.4248046875
-45.888671875,-213.2294921875
-45.83203125,-214.5068359375
-45.9033203125,-215.8486328125
-46.0908203125,-216.69921875
-46.1591796875,-216.634765625
-45.83984375,-215.6142578125
-45.0712890625,-214.0068359375
-44.1484375,-212.39453125
-43.6015625,-211.3134765625
-43.91015625,-211.072265625
-45.232421875,-211.666015625
-47.2529296875,-212.8046875
-49.310546875,-214.0087890625
-50.6787109375,-214.74609375
-50.9375,-214.55078125
-50.1357421875,-213.1328125
-48.6806640625,-210.4736328125
-47.076171875,-206.8720703125
-45.638671875,-202.9072265625
-44.4453125,-199.2724609375
-43.4208984375,-196.5322265625
-42.53125,-194.943359375
-41.8642578125,-194.41015625
-41.6064453125,-194.6044921875
-41.912109375,-195.1650390625
-42.8115234375,-195.8515625
-44.1806640625,-196.61328125
-45.80859375,-197.578125
-47.4736328125,-198.931640625
-49.0419921875,-200.7607421875
-50.4482421875,-202.8896484375
-51.6513671875,-204.8828125
-52.59375,-206.2255859375
-53.212890625,-206.58203125
-53.4658203125,-205.9638671875
-53.3037109375,-204.75
-52.6552734375,-203.5302734375
-51.462890625,-202.8525390625
-49.7939453125,-202.9921875
-47.888671875,-203.857421875
-46.119140625,-205.0908203125
-44.84375,-206.2783203125
-44.2509765625,-207.123046875
-44.3154296875,-207.49609375
-44.8447265625,-207.3916015625
-45.5986328125,-206.8837890625
-46.42578125,-206.123046875
-47.2822265625,-205.3505859375
-48.1669921875,-204.8515625
-49.0205078125,-204.8720703125
-49.6826171875,-205.513671875
-50.00390625,-206.7080078125
-49.947265625,-208.228515625
-49.6357421875,-209.78515625
-49.2724609375,-211.126953125
-49.0283203125,-212.1376953125
-48.966796875,-212.8486328125
-49.07421875,-213.3974609375
-49.31640625,-213.9453125
-49.7099609375,-214.599609375
-50.345703125,-215.3876953125
-51.333984375,-216.2841796875
-52.7236328125,-217.263671875
-54.4345703125,-218.32421875
-56.296875,-219.451171875
-58.083984375,-220.48046875
-59.5361328125,-221.0634765625
-60.373046875,-220.7958984375
-60.3388671875,-219.5205078125
-59.3232421875,-217.533203125
-57.4580078125,-215.533203125
-55.1103515625,-214.3125
-52.783203125,-214.3564453125
-50.91796875,-215.580078125
-49.7529296875,-217.3603515625
-49.3095703125,-218.8642578125
-49.419921875,-219.48828125
-49.8349609375,-219.197265625
-50.306640625,-218.5048828125
-50.6875,-218.140625
-50.984375,-218.60546875
-51.3525390625,-219.9033203125
-52.02734375,-221.560546875
-53.177734375,-222.8623046875
-54.8046875,-223.1572265625
-56.6484375,-222.1484375
-58.2900390625,-220.0205078125
-59.349609375,-217.3759765625
-59.7421875,-214.9541015625
-59.7587890625,-213.3046875
-59.8642578125,-212.6005859375
-60.3515625,-212.6865234375
-61.083984375,-213.26171875
-61.517578125,-214.02734375
-61.0068359375,-214.73046875
-59.2421875,-215.2041015625
-56.509765625,-215.3955078125
-53.6357421875,-215.4228515625
-51.5966796875,-215.5693359375
-51.046875,-216.193359375
-52.017578125,-217.5390625
-53.94140625,-219.525390625
-55.947265625,-221.6826171875
-57.251953125,-223.3427734375
-57.447265625,-224.0126953125
-56.6064453125,-223.6708984375
-55.1806640625,-222.7607421875
-53.7509765625,-221.880859375
-52.771484375,-221.4033203125
-52.3837890625,-221.3193359375
-52.392578125,-221.353515625
-52.359375,-221.1962890625
-51.837890625,-220.720703125
-50.599609375,-220.052734375
-48.7734375,-219.482421875
-46.8369140625,-219.3154296875
-45.3759765625,-219.7158203125
-44.81640625,-220.654296875
-45.228515625,-221.9580078125
-46.328125,-223.4287109375
-47.6357421875,-224.90625
-48.7041015625,-226.29296875
-49.279296875,-227.5263671875
-49.30859375,-228.5791015625
-48.873046875,-229.4755859375
-48.1337890625,-230.3193359375
-47.31640625,-231.2421875
-46.708984375,-232.298828125
-46.6044921875,-233.36328125
-47.2119140625,-234.142578125
-48.525390625,-234.3759765625
-50.2841796875,-234.0615234375
-52.0224609375,-233.5625
-53.23828125,-233.421875
-53.591796875,-234.001953125
-53.0849609375,-235.2607421875
-52.0634765625,-236.8037109375
-51.0537109375,-238.201171875
-50.4765625,-239.2763671875
-50.3896484375,-240.1923828125
-50.40625,-241.2607421875
-49.91015625,-242.6181640625
-48.4775390625,-244.0087890625
-46.2431640625,-244.822265625
-43.9169921875,-244.4091796875
-42.412109375,-242.49609375
-42.3134765625,-239.4140625
-43.541015625,-236.009765625
-45.423828125,-233.2822265625
-47.072265625,-231.97265625
-47.8310546875,-232.2626953125
-47.5478515625,-233.7099609375
-46.51953125,-235.4345703125
-45.212890625,-236.5205078125
-43.95703125,-236.4580078125
-42.79296875,-235.3759765625
-41.5986328125,-233.9658203125
-40.30859375,-233.1015625
-39.07421875,-233.4111328125
-38.2333984375,-235.0048828125
-38.1376953125,-237.474609375
-38.9072265625,-240.123046875
-40.3203125,-242.2490234375
-41.8720703125,-243.40234375
-43.0107421875,-243.4833984375
-43.4189453125,-242.666015625
-43.1650390625,-241.251953125
-42.6552734375,-239.5537109375
-42.4150390625,-237.853515625
-42.8115234375,-236.4052734375
-43.859375,-235.375
-45.2177734375,-234.7490234375
-46.3359375,-234.306640625
-46.6943359375,-233.775390625
-46.0322265625,-233.0625
-44.4677734375,-232.3779296875
-42.45703125,-232.15234375
-40.603515625,-232.7890625
-39.4169921875,-234.4189453125
-39.146484375,-236.7177734375
-39.7412109375,-238.908203125
-40.88671875,-239.9638671875
-42.1181640625,-239.056640625
-42.9931640625,-236.0400390625
-43.2626953125,-231.63671875
-42.9736328125,-227.1650390625
-42.4150390625,-223.974609375
-41.9765625,-222.8564453125
-41.951171875,-223.7763671875
-42.412109375,-225.95703125
-43.1650390625,-228.30078125
-43.8486328125,-229.90234375
-44.0751953125,-230.408203125
-43.654296875,-230.0390625
-42.6826171875,-229.326171875
-41.4931640625,-228.796875
-40.4697265625,-228.8056640625
-39.865234375,-229.443359375
-39.6982421875,-230.5302734375
-39.791015625,-231.6279296875
-39.884765625,-232.1640625
-39.767578125,-231.6220703125
-39.41796875,-229.7265625
-39.0244140625,-226.513671875
-38.9208984375,-222.33203125
-39.423828125,-217.755859375
-40.7197265625,-213.388671875
-42.7744140625,-209.509765625
-45.33984375,-205.6875
-48.0048828125,-200.6611328125
-50.3701171875,-192.630859375
-52.3330078125,-179.72265625
-54.234375,-160.2685546875
-56.712890625,-132.845703125
-60.3671875,-96.228515625
-65.4814453125,-49.3896484375
-71.9443359375,8.3740234375
-79.27734375,77.181640625
-86.7333984375,156.2509765625
-93.4560546875,243.6767578125
-98.712890625,336.4501953125
-102.123046875,430.724609375
-103.7451171875,522.201171875
-103.978515625,606.60546875
-103.3466796875,680.314453125
-102.3330078125,741.1328125
-101.28515625,788.98046875
-100.390625,826.0234375
-99.6181640625,855.998046875
-98.7607421875,882.8359375
-97.6025390625,909.123046875
-96.1171875,935.2158203125
-94.5576171875,959.51953125
-93.4150390625,979.7431640625
-93.197265625,994.353515625
-94.16796875,1003.314453125
-96.068359375,1007.7705078125
-98.0693359375,1008.9501953125
-99.0595703125,1007.083984375
-98.0859375,1001.171875
-94.712890625,989.712890625
-89.08984375,971.8310546875
-81.857421875,947.9716796875
-74.029296875,919.7080078125
-66.8447265625,888.90625
-61.474609375,856.9072265625
-58.591796875,824.177734375
-58.119140625,790.5205078125
-59.3037109375,755.58984375
-61.14453125,719.3681640625
-62.84765625,682.3935546875
-64.0400390625,645.6455078125
-64.6787109375,610.17578125
-64.8681640625,576.6259765625
-64.697265625,544.8544921875
-64.23828125,513.8974609375
-63.560546875,482.345703125
-62.7470703125,449.0126953125
-61.8681640625,413.49609375
-60.98828125,376.3544921875
-60.173828125,338.8310546875
-59.486328125,302.3740234375
-58.9521484375,268.169921875
-58.5439453125,236.875
-58.1943359375,208.53125
-57.80859375,182.6611328125
-57.3017578125,158.55078125
-56.6826171875,135.5927734375
-56.09765625,113.5478515625
-55.8330078125,92.572265625
-56.2255859375,72.998046875
-57.5048828125,55.033203125
-59.65234375,38.5751953125
-62.3251953125,23.2470703125
-64.9072265625,8.5732421875
-66.6767578125,-5.7421875
-67.0615234375,-19.6591796875
-65.8583984375,-32.80859375
-63.30078125,-44.6767578125
-59.966796875,-54.865234375
-56.578125,-63.2392578125
-53.7294921875,-69.9228515625
-51.6865234375,-75.1875
-50.2919921875,-79.3623046875
-49.0986328125,-82.7724609375
-47.638671875,-85.703125
-45.7197265625,-88.359375
-43.544921875,-90.8740234375
-41.61328125,-93.388671875
-40.4091796875,-96.0654296875
-40.1142578125,-99.0576171875
-40.5068359375,-102.4052734375
-41.1083984375,-105.9853515625
-41.484375,-109.515625
-41.4423828125,-112.5927734375
-41.033203125,-114.7685546875
-40.4130859375,-115.7216796875
-39.6845703125,-115.4658203125
-38.875,-114.447265625
-37.9912109375,-113.39453125
-37.0927734375,-112.9921875
-36.279296875,-113.587890625
-35.6533203125,-115.1103515625
-35.2568359375,-117.212890625
-35.078125,-119.53125
-35.0703125,-121.8759765625
-35.1943359375,-124.29296875
-35.3876953125,-126.9677734375
-35.5859375,-130.0146484375
-35.7216796875,-133.33203125
-35.7568359375,-136.611328125
-35.642578125,-139.5107421875
-35.3115234375,-141.8330078125
-34.6923828125,-143.572265625
-33.763671875,-144.84375
-32.5986328125,-145.8037109375
-31.3916015625,-146.6455078125
-30.447265625,-147.6298828125
-30.08203125,-149.0595703125
-30.4755859375,-151.1640625
-31.46875,-153.931640625
-32.5380859375,-157.0126953125
-33.013671875,-159.796875
-32.4306640625,-161.671875
-30.7900390625,-162.3466796875
-28.5654296875,-162.029296875
-26.4345703125,-161.3056640625
-24.9296875,-160.8330078125
-24.201171875,-161.041015625
-24.0205078125,-162.0751953125
-23.978515625,-163.8759765625
-23.7529296875,-166.275390625
-23.2900390625,-169.0244140625
-22.7998046875,-171.8046875
-22.6083984375,-174.333984375
-22.9462890625,-176.48046875
-23.8037109375,-178.27734375
-24.91015625,-179.8330078125
-25.8779296875,-181.1875
-26.36328125,-182.2333984375
-26.26171875,-182.763671875
-25.7294921875,-182.6220703125
-25.0712890625,-181.8779296875
-24.5234375,-180.8798828125
-24.111328125,-180.10546875
-23.666015625,-179.9013671875
-23.009765625,-180.3076171875
-22.1162109375,-181.109375
-21.1455078125,-182.0537109375
-20.30859375,-183.0078125
-19.6904296875,-183.9833984375
-19.20703125,-185.08984375
-18.703125,-186.4697265625
-18.0947265625,-188.296875
-17.478515625,-190.7119140625
-17.0576171875,-193.71875
-17.001953125,-197.068359375
-17.28515625,-200.24609375
-17.6435546875,-202.57421875
-17.6884765625,-203.44921875
-17.1015625,-202.5986328125
-15.8056640625,-200.255859375
-14.021484375,-197.1328125
-12.1826171875,-194.1748046875
-10.7314453125,-192.203125
-9.8779296875,-191.658203125
-9.5,-192.505859375
-9.2578125,-194.2529296875
-8.8603515625,-196.0966796875
-8.2958984375,-197.177734375
-7.849609375,-196.8935546875
-7.9013671875,-195.138671875
-8.6484375,-192.3330078125
-9.9501953125,-189.2568359375
-11.4052734375,-186.7783203125
-12.595703125,-185.619140625
-13.34375,-186.1435546875
-13.7998046875,-188.2470703125
-14.3505859375,-191.3974609375
-15.3486328125,-194.8154296875
-16.900390625,-197.7509765625
-18.7724609375,-199.6787109375
-20.5009765625,-200.3857421875
-21.6181640625,-199.9619140625
-21.833984375,-198.69140625
-21.15625,-196.904296875
-19.900390625,-194.884765625
-18.576171875,-192.900390625
-17.677734375,-191.31640625
-17.5234375,-190.58984375
-18.1552734375,-191.07421875
-19.3994140625,-192.7626953125
-20.953125,-195.201171875
-22.470703125,-197.671875
-23.5966796875,-199.55078125
-24.0556640625,-200.5595703125
-23.73828125,-200.7685546875
-22.76953125,-200.4287109375
-21.4873046875,-199.75
-20.2978515625,-198.8349609375
-19.5205078125,-197.74609375
-19.263671875,-196.6220703125
-19.427734375,-195.703125
-19.814453125,-195.23046875
-20.265625,-195.2861328125
-20.74609375,-195.7060546875
-21.296875,-196.1572265625
-21.9775390625,-196.3525390625
-22.78515625,-196.212890625
-23.6396484375,-195.8828125
-24.421875,-195.5966796875
-24.994140625,-195.5341796875
-25.2666015625,-195.755859375
-25.2568359375,-196.2001953125
-25.091796875,-196.7451171875
-24.978515625,-197.2841796875
-25.0712890625,-197.8359375
-25.38671875,-198.533203125
-25.806640625,-199.5419921875
-26.201171875,-200.9306640625
-26.52734375,-202.59765625
-26.9169921875,-204.263671875
-27.615234375,-205.5390625
-28.8466796875,-206.015625
-30.6474609375,-205.41015625
-32.7958984375,-203.73046875
-34.8896484375,-201.34375
-36.5498046875,-198.9140625
-37.60546875,-197.1630859375
-38.0712890625,-196.6005859375
-38.0478515625,-197.3310546875
-37.5830078125,-199.0048828125
-36.67578125,-200.9267578125
-35.36328125,-202.2900390625
-33.8203125,-202.49609375
-32.36328125,-201.3857421875
-31.3759765625,-199.2861328125
-31.0927734375,-196.873046875
-31.4365234375,-194.9140625
-31.9638671875,-194.0048828125
-32.037109375,-194.392578125
-31.154296875,-195.873046875
-29.23828125,-197.8408203125
-26.7041015625,-199.498046875
-24.236328125,-200.14453125
-22.4921875,-199.4765625
-21.826171875,-197.7119140625
-22.2236328125,-195.5185546875
-23.404296875,-193.76953125
-25.01171875,-193.2392578125
-26.7724609375,-194.3388671875
-28.537109375,-197.0078125
-30.2578125,-200.78515625
-31.8740234375,-205.0263671875
-33.283203125,-209.10546875
-34.3154296875,-212.548828125
-34.80078125,-215.0888671875
-34.6259765625,-216.6689453125
-33.806640625,-217.4111328125
-32.5078125,-217.5537109375
-31.021484375,-217.3681640625
-29.638671875,-217.09765625
-28.53125,-216.8896484375
-27.71484375,-216.77734375
-27.134765625,-216.6259765625
-26.818359375,-216.18359375
-26.9248046875,-215.1474609375
-27.7041015625,-213.33203125
-29.2939453125,-210.814453125
-31.5673828125,-208.0166015625
-34.06640625,-205.5927734375
-36.1650390625,-204.177734375
-37.3232421875,-204.12890625
-37.3994140625,-205.3818359375
-36.7109375,-207.51953125
-35.9111328125,-209.9619140625
-35.677734375,-212.216796875
-36.451171875,-214.0419921875
-38.28125,-215.46484375
-40.822265625,-216.677734375
-43.4697265625,-217.849609375
-45.5869140625,-218.962890625
-46.705078125,-219.759765625
-46.6591796875,-219.8828125
-45.5849609375,-219.138671875
-43.8134765625,-217.74609375
-41.736328125,-216.3134765625
-39.6904296875,-215.5419921875
-37.8916015625,-215.8193359375
-36.453125,-216.9755859375
-35.4453125,-218.380859375
-34.9541015625,-219.2734375
-35.03125,-219.150390625
-35.5673828125,-217.939453125
-36.21875,-215.947265625
-36.4599609375,-213.6103515625
-35.8486328125,-211.267578125
-34.2373046875,-209.0947265625
-31.8896484375,-207.162109375
-29.333984375,-205.5146484375
-27.11328125,-204.17578125
-25.5634765625,-203.1181640625
-24.7744140625,-202.2900390625
-24.66015625,-201.6943359375
-25.0908203125,-201.4453125
-25.984375,-201.736328125
-27.3125,-202.71484375
-29.04296875,-204.41796875
-31.080078125,-206.7763671875
-33.234375,-209.6318359375
-35.287109375,-212.7373046875
-37.03125,-215.7353515625
-38.3056640625,-218.248046875
-39.044921875,-220.0322265625
-39.3125,-221.1259765625
-39.3212890625,-221.7998046875
-39.3759765625,-222.416015625
-39.708984375,-223.22265625
-40.337890625,-224.2080078125
-41.078125,-225.1123046875
-41.671875,-225.5517578125
-41.9541015625,-225.2822265625
-41.9609375,-224.3828125
-41.8896484375,-223.2392578125
-41.98828125,-222.3720703125
-42.400390625,-222.201171875
-43.033203125,-222.912109375
-43.5625,-224.4130859375
-43.541015625,-226.3623046875
-42.60546875,-228.2490234375
-40.6552734375,-229.5546875
-37.900390625,-229.9462890625
-34.8037109375,-229.4169921875
-31.9267578125,-228.2490234375
-29.7763671875,-226.86328125
-28.6533203125,-225.66015625
-28.576171875,-224.953125
-29.3212890625,-224.9677734375
-30.5244140625,-225.8310546875
-31.8349609375,-227.4921875
-33.0390625,-229.654296875
-34.140625,-231.8115234375
-35.3193359375,-233.40625
-36.8349609375,-234.0595703125
-38.8466796875,-233.75390625
-41.318359375,-232.8662109375
-44.0068359375,-231.994140625
-46.5595703125,-231.6669921875
-48.6669921875,-232.14453125
-50.1953125,-233.375
-51.1982421875,-235.1083984375
-51.86328125,-236.9951171875
-52.40234375,-238.615234375
-52.943359375,-239.521484375
-53.45703125,-239.349609375
-53.7431640625,-238.01171875
-53.525390625,-235.810546875
-52.5888671875,-233.3759765625
-50.8974609375,-231.421875
-48.6220703125,-230.412109375
-46.087890625,-230.3291015625
-43.654296875,-230.703125
-41.5849609375,-230.8974609375
-39.939453125,-230.4619140625
-38.5703125,-229.328125
-37.224609375,-227.75
-35.673828125,-226.083984375
-33.8583984375,-224.580078125
-31.955078125,-223.33203125
-30.3173828125,-222.333984375
-29.3427734375,-221.615234375
-29.2548828125,-221.3076171875
-29.9443359375,-221.578125
-30.9892578125,-222.4814453125
-31.8466796875,-223.818359375
-32.1416015625,-225.1513671875
-31.8642578125,-226.0390625
-31.361328125,-226.326171875
-31.15625,-226.2802734375
-31.732421875,-226.423828125
-33.330078125,-227.1435546875
-35.8828125,-228.39453125
-39.0673828125,-229.6884765625
-42.4033203125,-230.4033203125
-45.3369140625,-230.169921875
-47.33984375,-229.10546875
-48.033203125,-227.7451171875
-47.3388671875,-226.7099609375
-45.576171875,-226.3564453125
-43.38671875,-226.646484375
-41.5126953125,-227.2763671875
-40.5068359375,-227.9296875
-40.5263671875,-228.435546875
-41.28515625,-228.7607421875
-42.1806640625,-228.935546875
-42.5595703125,-229.013671875
-42.0146484375,-229.0849609375
-40.599609375,-229.2802734375
-38.798828125,-229.69140625
-37.314453125,-230.2861328125
-36.734375,-230.8671875
-37.2626953125,-231.130859375
-38.64453125,-230.833984375
-40.3212890625,-229.958984375
-41.72265625,-228.80078125
-42.5634765625,-227.8935546875
-42.9482421875,-227.734375
-43.2216796875,-228.521484375
-43.689453125,-230.0185546875
-44.4111328125,-231.69140625
-45.2001953125,-232.986328125
-45.8125,-233.5927734375
-46.1591796875,-233.5458984375
-46.4033203125,-233.171875
-46.853515625,-232.884765625
-47.7548828125,-232.984375
-49.06640625,-233.5361328125
-50.3935546875,-234.400390625
-51.0810546875,-235.390625
-50.4990234375,-236.4169921875
-48.3603515625,-237.4951171875
-44.9560546875,-238.640625
-41.091796875,-239.7490234375
-37.7998046875,-240.5869140625
-35.8935546875,-240.9013671875
-35.6494140625,-240.55078125
-36.7353515625,-239.583984375
-38.41015625,-238.2470703125
-39.8818359375,-236.86328125
-40.658203125,-235.6875
-40.6875,-234.8037109375
-40.2783203125,-234.1640625
-39.8505859375,-233.6611328125
-39.7060546875,-233.203125
-39.9091796875,-232.7021484375
-40.29296875,-232.076171875
-40.58203125,-231.3310546875
-40.56640625,-230.64453125
-40.2470703125,-230.3291015625
-39.861328125,-230.6748046875
-39.7412109375,-231.775390625
-40.078125,-233.4443359375
-40.759765625,-235.296875
-41.3662109375,-236.939453125
-41.412109375,-238.1455078125
-40.66796875,-238.951171875
-39.35546875,-239.5869140625
-38.0888671875,-240.30078125
-37.572265625,-241.1982421875
-38.2236328125,-242.18359375
-39.9619140625,-243.0302734375
-42.2412109375,-243.50390625
-44.30078125,-243.4853515625
-45.466796875,-243.017578125
-45.390625,-242.2919921875
-44.1572265625,-241.5830078125
-42.20703125,-241.1279296875
-40.1416015625,-241.02734375
-38.47265625,-241.2529296875
-37.4296875,-241.755859375
-36.94140625,-242.56640625
-36.755859375,-243.76171875
-36.65625,-245.3427734375
-36.5615234375,-247.142578125
-36.5166015625,-248.8671875
-36.60546875,-250.2021484375
-36.849609375,-250.9443359375
-37.1884765625,-251.060546875
-37.4990234375,-250.73828125
-37.662109375,-250.3720703125
-37.6572265625,-250.45703125
-37.6240234375,-251.3623046875
-37.86328125,-253.0615234375
-38.6689453125,-255.00390625
-40.1337890625,-256.326171875
-41.994140625,-256.30078125
-43.658203125,-254.7978515625
-44.435546875,-252.4619140625
-43.8828125,-250.4482421875
-42.078125,-249.8173828125
-39.6123046875,-250.9501953125
-37.2666015625,-253.3408203125
-35.5693359375,-255.931640625
-34.56640625,-257.740234375
-33.9208984375,-258.3232421875
-33.240234375,-257.837890625
-32.3720703125,-256.7734375
-31.501953125,-255.6005859375
-31.041015625,-254.587890625
-31.40625,-253.76953125
-32.7841796875,-253.0556640625
-34.9638671875,-252.392578125
-37.3662109375,-251.869140625
-39.2734375,-251.681640625
-40.140625,-251.943359375
-39.84375,-252.5087890625
-38.7060546875,-252.9501953125
-37.341796875,-252.775390625
-36.36328125,-251.6982421875
-36.109375,-249.7939453125
-36.521484375,-247.453125
-37.224609375,-245.2255859375
-37.7431640625,-243.625
-37.7529296875,-242.958984375
-37.1630859375,-243.224609375
-36.109375,-244.1142578125
-34.859375,-245.12109375
-33.7177734375,-245.7119140625
-32.9638671875,-245.5576171875
-32.7841796875,-244.734375
-33.2041015625,-243.7919921875
-34.044921875,-243.4873046875
-34.9228515625,-244.306640625
-35.2490234375,-246.0673828125
-34.234375,-247.888671875
-30.9208984375,-248.583984375
-24.2333984375,-247.2041015625
-13.109375,-243.4052734375
3.2783203125,-237.4853515625
25.3408203125,-230.0947265625
52.8603515625,-221.8564453125
84.9306640625,-213.1015625
119.9658203125,-203.880859375
155.8623046875,-194.21875
190.201171875,-184.455078125
220.486328125,-175.4130859375
244.4892578125,-168.298828125
260.6669921875,-164.3291015625
268.6220703125,-164.2421875
269.3642578125,-167.8916015625
265.1455078125,-174.09765625
258.873046875,-180.9326171875
253.2578125,-186.357421875
250.021484375,-188.9716796875
249.5126953125,-188.4970703125
250.87890625,-185.7685546875
252.7099609375,-182.267578125
253.79296875,-179.4453125
253.6162109375,-178.1455078125
252.3701171875,-178.333984375
250.6640625,-179.2353515625
249.1015625,-179.7763671875
248.0400390625,-179.1484375
247.548828125,-177.16796875
247.5185546875,-174.3193359375
247.826171875,-171.49609375
248.4384765625,-169.5947265625
249.416015625,-169.1328125
250.7666015625,-170.037109375
252.28125,-171.6806640625
253.505859375,-173.2099609375
253.927734375,-173.9736328125
253.283203125,-173.84765625
251.779296875,-173.21875
250.0654296875,-172.6962890625
248.927734375,-172.759765625
248.8955078125,-173.548828125
249.9599609375,-174.92578125
251.625,-176.68359375
253.212890625,-178.7529296875
254.234375,-181.2236328125
254.576171875,-184.2001953125
254.4208984375,-187.5810546875
254.04296875,-190.9658203125
253.6298828125,-193.78125
253.2431640625,-195.5615234375
252.8232421875,-196.189453125
252.2333984375,-195.947265625
251.3134765625,-195.3515625
249.9521484375,-194.921875
248.21484375,-194.9345703125
246.33984375,-195.384765625
244.689453125,-196.078125
243.564453125,-196.826171875
243.072265625,-197.5986328125
243.0615234375,-198.51171875
243.2353515625,-199.703125
243.3125,-201.2275390625
243.2109375,-203.02734375
243.0703125,-204.95703125
243.11328125,-206.818359375
243.4541015625,-208.400390625
244.001953125,-209.5390625
244.5107421875,-210.2119140625
244.78125,-210.5712890625
244.787109375,-210.84765625
244.6982421875,-211.177734375
244.71484375,-211.4794921875
244.84765625,-211.4609375
244.8359375,-210.76171875
