Horizontal,Vertical
0,0
-2.046875,-0.860107421875
-3.6484375,-2.280029296875
-4.6396484375,-4.08984375
-5.00390625,-6.07763671875
-4.8740234375,-8.04052734375
-4.462890625,-9.772705078125
-4.0087890625,-11.060791015625
-3.73828125,-11.728759765625
-3.875,-11.718505859375
-4.5712890625,-11.129638671875
-5.7939453125,-10.187255859375
-7.2275390625,-9.1494140625
-8.34375,-8.18212890625
-8.64453125,-7.29052734375
-7.9296875,-6.351318359375
-6.4619140625,-5.2705078125
-4.87890625,-4.15087890625
-3.9189453125,-3.336669921875
-4.0732421875,-3.241455078125
-5.33203125,-4.072998046875
-7.1826171875,-5.6005859375
-8.875,-7.18408203125
-9.806640625,-8.05712890625
-9.8173828125,-7.739990234375
-9.205078125,-6.3369140625
-8.48828125,-4.51904296875
-8.0478515625,-3.228759765625
-7.9130859375,-3.239013671875
-7.7802734375,-4.817138671875
-7.2890625,-7.61328125
-6.322265625,-10.804443359375
-5.1455078125,-13.37744140625
-4.267578125,-14.463623046875
-4.109375,-13.65380859375
-4.76171875,-11.191162109375
-5.9716796875,-7.916259765625
-7.353515625,-4.94921875
-8.6083984375,-3.213134765625
-9.6279296875,-3.05078125
-10.4375,-4.11474609375
-11.0361328125,-5.59130859375
-11.2509765625,-6.577880859375
-10.6806640625,-6.41015625
-8.8203125,-4.818359375
-5.2958984375,-1.869384765625
-0.0849609375,2.223388671875
6.44140625,7.281005859375
13.6865234375,13.2353515625
21.125,20.10693359375
28.5908203125,27.9150390625
36.3857421875,36.61376953125
45.09765625,46.016357421875
55.2333984375,55.733154296875
66.8447265625,65.14013671875
79.384765625,73.467041015625
91.8583984375,80.01416015625
103.1044921875,84.4150390625
112.123046875,86.8232421875
118.29296875,87.864013671875
121.4970703125,88.359375
122.1552734375,88.921875
121.1328125,89.655517578125
119.5107421875,90.17138671875
118.267578125,89.90966796875
117.970703125,88.57177734375
118.6416015625,86.37451171875
119.865234375,83.972412109375
121.07421875,82.078369140625
121.8779296875,81.059814453125
122.23828125,80.736572265625
122.4052734375,80.5224609375
122.689453125,79.77685546875
123.20703125,78.153564453125
123.74609375,75.733642578125
123.84765625,72.910400390625
123.076171875,70.169921875
121.3125,67.900146484375
118.91796875,66.316162109375
116.6669921875,65.447265625
115.458984375,65.14404296875
115.9296875,65.12548828125
118.1474609375,65.0576171875
121.5009765625,64.70703125
124.890625,64.0771484375
127.1435546875,63.45068359375
127.501953125,63.260498046875
125.94921875,63.8310546875
123.216796875,65.120361328125
120.451171875,66.650390625
118.7119140625,67.715087890625
118.5458984375,67.750732421875
119.8291015625,66.62158203125
121.9296875,64.655517578125
124.1015625,62.436767578125
125.83203125,60.497314453125
127.0400390625,59.1201171875
128.029296875,58.30322265625
129.2607421875,57.857421875
131.056640625,57.548095703125
133.3798828125,57.178955078125
135.82421875,56.578369140625
137.76953125,55.596923828125
138.685546875,54.12060546875
138.3759765625,52.150634765625
137.119140625,49.84423828125
135.580078125,47.466796875
134.55078125,45.2822265625
134.5791015625,43.484619140625
135.6875,42.212158203125
137.35546875,41.5927734375
138.744140625,41.70654296875
139.1064453125,42.49658203125
138.130859375,43.714599609375
136.06640625,44.984619140625
133.568359375,45.958984375
131.3759765625,46.49365234375
129.9697265625,46.7275390625
129.3740234375,46.97607421875
129.19140625,47.4951171875
128.857421875,48.23193359375
127.9580078125,48.8115234375
126.4638671875,48.764892578125
124.74609375,47.865966796875
123.3935546875,46.320068359375
122.9208984375,44.68408203125
123.4970703125,43.584228515625
124.826171875,43.401611328125
126.2802734375,44.13916015625
127.212890625,45.514404296875
127.3154296875,47.190673828125
126.79296875,48.9501953125
126.2275390625,50.7021484375
126.23828125,52.3564453125
127.1064453125,53.7177734375
128.615234375,54.527587890625
130.1455078125,54.614501953125
130.9921875,54.010009765625
130.7021484375,52.93310546875
129.314453125,51.62890625
127.3740234375,50.268310546875
125.69921875,48.970458984375
125.025390625,47.93017578125
125.681640625,47.447509765625
127.4912109375,47.79931640625
129.9169921875,48.9990234375
132.3818359375,50.7041015625
134.5009765625,52.354736328125
136.1396484375,53.441162109375
137.26953125,53.720458984375
137.83203125,53.27197265625
137.697265625,52.420654296875
136.7763671875,51.628662109375
135.193359375,51.3701171875
133.369140625,51.99560546875
131.92578125,53.5771484375
131.4453125,55.79931640625
132.1875,57.9931640625
133.9453125,59.365478515625
136.0771484375,59.3623046875
137.7255859375,57.963623046875
138.1552734375,55.69580078125
137.10546875,53.324462890625
134.970703125,51.451904296875
132.6748046875,50.2744140625
131.26171875,49.63134765625
131.4228515625,49.23583984375
133.1865234375,48.889892578125
135.94140625,48.591796875
138.748046875,48.49169921875
140.775390625,48.77294921875
141.6328125,49.55126953125
141.47265625,50.8271484375
140.83984375,52.50439453125
140.4091796875,54.415771484375
140.7041015625,56.33837890625
141.9169921875,57.9619140625
143.828125,58.876953125
145.88671875,58.64306640625
147.4306640625,56.950927734375
147.95703125,53.83203125
147.3134765625,49.77880859375
145.7529296875,45.660888671875
143.830078125,42.445556640625
142.1865234375,40.818603515625
141.3310546875,40.89697265625
141.4873046875,42.20166015625
142.583984375,43.9267578125
144.3271484375,45.3544921875
146.31640625,46.17529296875
148.1357421875,46.566162109375
149.4375,47.0146484375
150.0126953125,48.02001953125
149.8427734375,49.77978515625
149.087890625,52.0263671875
148.0361328125,54.118896484375
146.9892578125,55.396240234375
146.1923828125,55.5654296875
145.7890625,54.899658203125
145.8271484375,54.09716796875
146.263671875,53.9130859375
146.9921875,54.748291015625
147.8818359375,56.4267578125
148.818359375,58.25732421875
149.7158203125,59.356201171875
150.5009765625,59.067626953125
151.0859375,57.27880859375
151.353515625,54.482666015625
151.171875,51.5732421875
150.4580078125,49.4716796875
149.23828125,48.731689453125
147.6796875,49.317138671875
146.021484375,50.62890625
144.4677734375,51.7978515625
143.09765625,52.0712890625
141.880859375,51.1044921875
140.78125,48.999755859375
139.83984375,46.10986328125
139.1533203125,42.829833984375
138.796875,39.52392578125
138.74609375,36.619384765625
138.87109375,34.685546875
138.982421875,34.3115234375
138.9169921875,35.79248046875
138.6416015625,38.820068359375
138.32421875,42.43310546875
138.3330078125,45.326416015625
139.099609375,46.36474609375
140.9052734375,45.047119140625
143.662109375,41.7080078125
146.8544921875,37.41015625
149.6689453125,33.569091796875
151.283203125,31.42431640625
151.212890625,31.559814453125
149.5107421875,33.683837890625
146.779296875,36.7919921875
143.923828125,39.647216796875
141.7890625,41.320556640625
140.8212890625,41.523681640625
140.912109375,40.594482421875
141.4736328125,39.181640625
141.732421875,37.84716796875
141.0888671875,36.820068359375
139.404296875,36.0263671875
137.046875,35.304443359375
134.7099609375,34.607177734375
133.0966796875,34.072998046875
132.6337890625,33.94140625
133.3642578125,34.403564453125
134.951171875,35.4833984375
136.8603515625,36.96923828125
138.5888671875,38.4072265625
139.873046875,39.19091796875
140.771484375,38.774169921875
141.5654296875,36.94189453125
142.5517578125,34.0048828125
143.8271484375,30.749755859375
145.1787109375,28.13623046875
146.2001953125,26.902099609375
146.51171875,27.271728515625
146.0166015625,28.923828125
144.953125,31.170166015625
143.8056640625,33.255126953125
143.064453125,34.583251953125
143.0107421875,34.848388671875
143.6064453125,34.04541015625
144.4775390625,32.43359375
145.0439453125,30.440185546875
144.716796875,28.5166015625
143.13671875,27.01708984375
140.38671875,26.1337890625
137.0654296875,25.902587890625
134.1162109375,26.232177734375
132.4541015625,26.974609375
132.5947265625,27.989990234375
134.4736328125,29.17919921875
137.5556640625,30.451171875
141.1416015625,31.681396484375
144.6181640625,32.73828125
147.5625,33.54541015625
149.72265625,34.1220703125
150.982421875,34.531005859375
151.4130859375,34.79638671875
151.359375,34.89501953125
151.421875,34.824462890625
152.236328125,34.66064453125
153.99609375,34.515869140625
155.986328125,34.395751953125
156.5458984375,34.087158203125
153.65234375,33.1611328125
145.896484375,31.13818359375
133.2958984375,27.720947265625
117.4130859375,23.007568359375
100.716796875,17.559326171875
85.521484375,12.232666015625
73.12109375,7.827392578125
63.548828125,4.704833984375
56.03515625,2.6318359375
49.8125,0.95068359375
44.6923828125,-1.01220703125
41.0625,-3.5458984375
39.4306640625,-6.3974609375
39.861328125,-8.930908203125
41.7685546875,-10.507568359375
44.09765625,-10.88818359375
45.744140625,-10.38671875
45.9775390625,-9.665283203125
44.6640625,-9.340087890625
42.279296875,-9.667236328125
39.681640625,-10.520263671875
37.744140625,-11.58056640625
37.0029296875,-12.561767578125
37.4873046875,-13.2861328125
38.822265625,-13.663330078125
40.490234375,-13.664306640625
42.138671875,-13.38525390625
43.7451171875,-13.10693359375
45.580078125,-13.25244140625
47.9560546875,-14.213623046875
50.9375,-16.146240234375
54.1669921875,-18.876953125
56.96875,-21.969482421875
58.64453125,-24.927490234375
58.8359375,-27.404052734375
57.7421875,-29.289794921875
56.099609375,-30.67333984375
54.9091796875,-31.71533203125
55.0029296875,-32.5341796875
56.6171875,-33.16064453125
59.232421875,-33.5439453125
61.8046875,-33.60546875
63.267578125,-33.33984375
63.0390625,-32.873046875
61.2333984375,-32.42919921875
58.517578125,-32.199462890625
55.7431640625,-32.2109375
53.587890625,-32.295166015625
52.3603515625,-32.173095703125
52.0107421875,-31.597412109375
52.2431640625,-30.46630859375
52.6474609375,-28.887939453125
52.826171875,-27.15576171875
52.525390625,-25.678466796875
51.74609375,-24.85205078125
50.7646484375,-24.92919921875
49.9814453125,-25.905029296875
49.634765625,-27.48388671875
49.607421875,-29.168701171875
49.458984375,-30.479736328125
48.73828125,-31.151611328125
47.369140625,-31.241455078125
45.810546875,-31.092529296875
44.90234375,-31.1865234375
45.4091796875,-31.93359375
47.5556640625,-33.43798828125
50.7998046875,-35.325439453125
53.9990234375,-36.788818359375
55.8779296875,-36.88720703125
55.580078125,-35.00634765625
53.03515625,-31.2373046875
49.013671875,-26.423095703125
44.83203125,-21.839111328125
41.873046875,-18.647705078125
41.0625,-17.443359375
42.5458984375,-18.096435546875
45.646484375,-19.96044921875
49.205078125,-22.232421875
52.0966796875,-24.2431640625
53.6982421875,-25.529296875
54.0693359375,-25.794189453125
53.806640625,-24.892333984375
53.6357421875,-22.92578125
53.998046875,-20.338134765625
54.8203125,-17.849365234375
55.58984375,-16.18603515625
55.64453125,-15.7578125
54.5205078125,-16.47265625
52.1669921875,-17.808837890625
48.9970703125,-19.10302734375
45.716796875,-19.881591796875
43.076171875,-20.058349609375
41.619140625,-19.888427734375
41.517578125,-19.7294921875
42.5634765625,-19.796875
44.2763671875,-20.117431640625
46.11328125,-20.659912109375
47.6494140625,-21.472900390625
48.6904296875,-22.669677734375
49.2568359375,-24.2666015625
49.5107421875,-26.05224609375
49.658203125,-27.6162109375
49.8310546875,-28.534912109375
50.0302734375,-28.569091796875
50.1201171875,-27.78759765625
49.8955078125,-26.593994140625
49.2275390625,-25.635009765625
48.1865234375,-25.589111328125
47.072265625,-26.884033203125
46.2763671875,-29.45654296875
46.07421875,-32.700439453125
46.4970703125,-35.670654296875
47.333984375,-37.449462890625
48.2685546875,-37.5625
49.0478515625,-36.197265625
49.609375,-34.090087890625
50.1005859375,-32.16162109375
50.7802734375,-31.06884765625
51.8857421875,-30.935302734375
53.517578125,-31.40087890625
55.5703125,-31.912841796875
57.72265625,-32.080322265625
59.4970703125,-31.895751953125
60.45703125,-31.7021484375
60.4443359375,-31.996826171875
59.7587890625,-33.17578125
59.076171875,-35.33642578125
59.1396484375,-38.222412109375
60.3828125,-41.325439453125
62.693359375,-44.095947265625
65.447265625,-46.114990234375
67.7626953125,-47.1484375
68.88671875,-47.1484375
68.505859375,-46.212646484375
66.859375,-44.569091796875
64.62109375,-42.520751953125
62.5966796875,-40.405517578125
61.451171875,-38.591064453125
61.5107421875,-37.478759765625
62.7236328125,-37.415771484375
64.736328125,-38.50927734375
67.052734375,-40.41748046875
69.1845703125,-42.349365234375
70.771484375,-43.322509765625
71.611328125,-42.659912109375
71.6201171875,-40.417724609375
70.787109375,-37.4677734375
69.1875,-35.151611328125
67.046875,-34.6103515625
64.8056640625,-36.16845703125
63.0869140625,-39.118896484375
62.5322265625,-42.061279296875
63.5478515625,-43.6181640625
66.0693359375,-43.093994140625
69.4921875,-40.746337890625
72.8515625,-37.576171875
75.169921875,-34.82861328125
75.8408203125,-33.460693359375
74.85546875,-33.77734375
72.783203125,-35.3857421875
70.5419921875,-37.450927734375
69.07421875,-39.15380859375
69.0234375,-40.06201171875
70.53515625,-40.273193359375
73.1875,-40.274169921875
76.1103515625,-40.6435546875
78.279296875,-41.752197265625
78.9345703125,-43.576416015625
77.912109375,-45.72509765625
75.7255859375,-47.6552734375
73.3046875,-48.9404296875
71.541015625,-49.42626953125
70.8828125,-49.19677734375
71.189453125,-48.3798828125
71.9326171875,-46.988525390625
72.5556640625,-44.915771484375
72.7763671875,-42.095703125
72.619140625,-38.686279296875
72.2314453125,-35.1279296875
71.63671875,-32.048828125
70.6513671875,-30.034912109375
69.05078125,-29.388671875
66.814453125,-29.99755859375
64.3017578125,-31.39697265625
62.1669921875,-33.009521484375
61.091796875,-34.40966796875
61.4609375,-35.47900390625
63.1650390625,-36.349365234375
65.6279296875,-37.211669921875
68.0341796875,-38.1220703125
69.662109375,-38.918701171875
70.1015625,-39.305908203125
69.3359375,-39.028564453125
67.662109375,-38.052978515625
65.54296875,-36.622314453125
63.4423828125,-35.185302734375
61.767578125,-34.23974609375
60.8583984375,-34.183349609375
60.97265625,-35.2421875
62.2294921875,-37.43017578125
64.494140625,-40.524169921875
67.3427734375,-44.0537109375
70.150390625,-47.362548828125
72.31640625,-49.7646484375
73.494140625,-50.73681640625
73.701171875,-50.105712890625
73.259765625,-48.151611328125
72.599609375,-45.5546875
72.0830078125,-43.170654296875
71.900390625,-41.718017578125
72.0908203125,-41.5234375
72.6298828125,-42.459716796875
73.501953125,-44.07568359375
74.7197265625,-45.832763671875
76.2607421875,-47.282470703125
77.9716796875,-48.114990234375
79.5283203125,-48.09521484375
80.515625,-47.046142578125
80.6123046875,-44.917724609375
79.7646484375,-41.926513671875
78.232421875,-38.620849609375
76.49609375,-35.7509765625
75.08984375,-33.958984375
74.4228515625,-33.48291015625
74.6650390625,-34.052490234375
75.716796875,-35.055908203125
77.2451171875,-35.858154296875
78.7490234375,-36.072509765625
79.6552734375,-35.646728515625
79.46484375,-34.767578125
77.9755859375,-33.722900390625
75.455078125,-32.791259765625
72.6220703125,-32.169677734375
70.345703125,-31.947021484375
69.20703125,-32.1025390625
69.193359375,-32.535400390625
69.712890625,-33.084228515625
69.943359375,-33.542236328125
69.3056640625,-33.691162109375
67.794921875,-33.3701171875
65.9912109375,-32.56640625
64.728515625,-31.51025390625
64.6181640625,-30.67041015625
65.6767578125,-30.650146484375
67.2978515625,-31.9462890625
68.5419921875,-34.677734375
68.615234375,-38.430419921875
67.2587890625,-42.334716796875
64.8544921875,-45.40087890625
62.22265625,-46.919677734375
60.2255859375,-46.7373046875
59.3662109375,-45.23876953125
59.6015625,-43.106201171875
60.4140625,-40.990234375
61.072265625,-39.265380859375
60.96484375,-37.97802734375
59.845703125,-36.985595703125
57.9169921875,-36.159423828125
55.7060546875,-35.500732421875
53.830078125,-35.110595703125
52.73046875,-35.077392578125
52.5205078125,-35.36376953125
52.974609375,-35.795166015625
53.6787109375,-36.116943359375
54.2568359375,-36.074951171875
54.5439453125,-35.475830078125
54.609375,-34.22802734375
54.6923828125,-32.370361328125
55.0439453125,-30.05029296875
55.80859375,-27.478515625
56.951171875,-24.84521484375
58.2783203125,-22.29443359375
59.509765625,-19.949951171875
60.4140625,-17.9765625
60.8955078125,-16.590087890625
61.01171875,-15.95751953125
60.91015625,-16.039306640625
60.7470703125,-16.484375
60.6044921875,-16.689208984375
60.490234375,-16.06494140625
60.3681640625,-14.352783203125
60.197265625,-11.814208984375
59.962890625,-9.1435546875
59.6884765625,-7.193115234375
59.447265625,-6.631591796875
59.376953125,-7.7431640625
59.6533203125,-10.39501953125
60.400390625,-14.1337890625
61.611328125,-18.3212890625
63.1015625,-22.279541015625
64.59765625,-25.42724609375
65.876953125,-27.419677734375
66.88671875,-28.216064453125
67.716796875,-28.06201171875
68.455078125,-27.328857421875
69.0751953125,-26.27880859375
69.423828125,-24.948486328125
69.3369140625,-23.2294921875
68.7890625,-21.112548828125
67.962890625,-18.856689453125
67.1904296875,-16.927001953125
66.7685546875,-15.7490234375
66.787109375,-15.45703125
67.080078125,-15.8251953125
67.3203125,-16.4228515625
67.2216796875,-16.877197265625
66.712890625,-17.03369140625
65.9833984375,-16.91552734375
65.376953125,-16.558837890625
65.1787109375,-15.89599609375
65.4189453125,-14.8369140625
65.8564453125,-13.46142578125
66.140625,-12.142333984375
66.0341796875,-11.39794921875
65.53515625,-11.577392578125
64.849609375,-12.607177734375
64.2275390625,-14.02392578125
63.8349609375,-15.261962890625
63.671875,-15.96728515625
63.6005859375,-16.13916015625
63.4111328125,-16.04345703125
62.931640625,-15.99267578125
62.125,-16.133544921875
61.1455078125,-16.3017578125
60.33203125,-16.029052734375
60.0693359375,-14.733642578125
60.529296875,-12.00390625
61.4619140625,-7.798828125
62.2333984375,-2.39404296875
62.1845703125,3.955078125
61.0947265625,11.316162109375
59.4248046875,20.053955078125
58.1240234375,30.4951171875
58.1025390625,42.6923828125
59.6435546875,56.581787109375
62.166015625,72.427978515625
64.4873046875,91.0947265625
65.49609375,113.821044921875
64.79296875,141.494384765625
62.90234375,173.839111328125
60.8955078125,209.05224609375
59.7255859375,244.29052734375
59.6982421875,276.85498046875
60.390625,305.325927734375
61.048828125,329.9140625
61.1708984375,351.798583984375
60.88671875,371.982421875
60.841796875,390.421630859375
61.7265625,405.910400390625
63.7587890625,416.69970703125
66.5087890625,421.42529296875
69.1513671875,419.894287109375
70.9580078125,413.32421875
71.68359375,403.89697265625
71.603515625,393.75634765625
71.2421875,383.98828125
71.0615234375,374.210693359375
71.3076171875,363.087890625
72.0244140625,349.413330078125
73.15625,333.041748046875
74.5732421875,315.086669921875
76.0830078125,297.36962890625
77.43359375,281.498046875
78.4072265625,268.1376953125
78.9296875,256.7998046875
79.1494140625,246.213134765625
79.3955078125,235.0185546875
79.9921875,222.37646484375
81.0693359375,208.20361328125
82.4697265625,192.9921875
83.8544921875,177.421630859375
84.9013671875,162.057373046875
85.431640625,147.233642578125
85.412109375,133.153076171875
84.86328125,119.986083984375
83.822265625,107.90625
82.38671875,97.013671875
80.79296875,87.266357421875
79.4091796875,78.490234375
78.611328125,70.470703125
78.6171875,63.076904296875
79.361328125,56.317626953125
80.5224609375,50.312744140625
81.673828125,45.16796875
82.486328125,40.854248046875
82.8818359375,37.169921875
83.0654296875,33.84912109375
83.380859375,30.698486328125
84.1318359375,27.681884765625
85.443359375,24.904296875
87.240234375,22.48486328125
89.322265625,20.427734375
91.4560546875,18.546630859375
93.431640625,16.502197265625
95.080078125,13.9404296875
96.2412109375,10.66796875
96.72265625,6.766845703125
96.318359375,2.552490234375
94.9052734375,-1.595947265625
92.564453125,-5.38623046875
89.626953125,-8.627197265625
86.609375,-11.120849609375
84.0390625,-12.603759765625
82.306640625,-12.866943359375
81.55859375,-11.97265625
81.69140625,-10.38232421875
82.4345703125,-8.84130859375
83.4736328125,-8.10400390625
84.5732421875,-8.64453125
85.6240234375,-10.528564453125
86.609375,-13.448486328125
87.53515625,-16.842529296875
88.41796875,-20.010986328125
89.3076171875,-22.228271484375
90.28515625,-22.939453125
91.423828125,-21.982666015625
92.7060546875,-19.706298828125
93.95703125,-16.898681640625
94.833984375,-14.549560546875
94.9296875,-13.543701171875
93.9658203125,-14.37353515625
91.998046875,-16.96337890625
89.4716796875,-20.668701171875
87.0625,-24.475830078125
85.35546875,-27.344482421875
84.529296875,-28.573974609375
84.2265625,-28.056884765625
83.7275390625,-26.325439453125
82.345703125,-24.336181640625
79.8681640625,-23.075439453125
76.7431640625,-23.164794921875
73.916015625,-24.645263671875
72.3310546875,-27.02685546875
72.4111328125,-29.4814453125
73.8271484375,-31.12548828125
75.6748046875,-31.2900390625
76.9912109375,-29.76220703125
77.2392578125,-26.867431640625
76.5087890625,-23.325927734375
75.357421875,-19.964599609375
74.4248046875,-17.4296875
74.072265625,-16.06298828125
74.216796875,-15.93115234375
74.447265625,-16.872314453125
74.30859375,-18.507568359375
73.59765625,-20.2294921875
72.484375,-21.291748046875
71.421875,-21.03857421875
70.9248046875,-19.21142578125
71.3125,-16.1494140625
72.5703125,-12.735107421875
74.3740234375,-10.056640625
76.2236328125,-8.967529296875
77.6533203125,-9.7578125
78.375,-12.052734375
78.37109375,-14.971435546875
77.875,-17.468017578125
77.26171875,-18.7197265625
76.869140625,-18.421630859375
76.7890625,-16.879638671875
76.7578125,-14.86669921875
76.2529296875,-13.2763671875
74.7705078125,-12.74560546875
72.18359375,-13.421630859375
68.9521484375,-14.962158203125
66.041015625,-16.71142578125
64.5380859375,-17.955078125
65.158203125,-18.156005859375
67.904296875,-17.143798828125
72.04296875,-15.197021484375
76.4443359375,-12.968505859375
80.0478515625,-11.224365234375
82.2822265625,-10.5380859375
83.181640625,-11.095947265625
83.20703125,-12.703857421875
82.9091796875,-14.93017578125
82.61328125,-17.251220703125
82.27734375,-19.185546875
81.5625,-20.40673828125
80.0927734375,-20.853271484375
77.7705078125,-20.76123046875
74.947265625,-20.570068359375
72.3447265625,-20.68798828125
70.748046875,-21.261962890625
70.6396484375,-22.09423828125
72.0126953125,-22.791748046875
74.4111328125,-23.080322265625
77.162109375,-23.035400390625
79.6826171875,-23.084228515625
81.6669921875,-23.73828125
83.1015625,-25.248779296875
84.1220703125,-27.391357421875
84.83203125,-29.484619140625
85.2138671875,-30.65185546875
85.1630859375,-30.220458984375
84.546875,-28.08984375
83.29296875,-24.856201171875
81.423828125,-21.591796875
79.12109375,-19.337646484375
76.7685546875,-18.63232421875
74.9443359375,-19.333251953125
74.3076171875,-20.836669921875
75.3251953125,-22.54541015625
78.021484375,-24.21240234375
81.83984375,-25.970947265625
85.7890625,-28.0498046875
88.8173828125,-30.460693359375
90.23828125,-32.893310546875
89.9736328125,-34.93798828125
88.5234375,-36.4296875
86.6669921875,-37.588623046875
85.173828125,-38.853271484375
84.587890625,-40.48095703125
85.1884765625,-42.239013671875
86.9873046875,-43.426513671875
89.6865234375,-43.22607421875
92.6728515625,-41.17236328125
95.142578125,-37.447509765625
96.4208984375,-32.8369140625
96.2763671875,-28.41552734375
95.0693359375,-25.116455078125
93.5771484375,-23.439697265625
92.583984375,-23.364501953125
92.5126953125,-24.48388671875
93.25,-26.189453125
94.2822265625,-27.83935546875
95.0107421875,-28.9091796875
95.0869140625,-29.146240234375
94.5693359375,-28.6923828125
93.8681640625,-28.05029296875
93.5244140625,-27.832275390625
93.9599609375,-28.40576171875
95.2919921875,-29.646484375
97.2890625,-30.968994140625
99.4384765625,-31.630859375
101.1572265625,-31.158447265625
101.9853515625,-29.630859375
101.7265625,-27.64306640625
100.47265625,-25.967041015625
98.56640625,-25.114501953125
96.525390625,-25.08154296875
94.9072265625,-25.3935546875
94.1337890625,-25.467041015625
94.2763671875,-25.03466796875
95.009765625,-24.36669921875
95.7490234375,-24.103759765625
95.958984375,-24.780517578125
95.439453125,-26.360107421875
94.4111328125,-28.1181640625
93.3642578125,-29.0146484375
92.736328125,-28.349365234375
92.6103515625,-26.27734375
92.646484375,-23.826171875
92.2705078125,-22.35400390625
91.0068359375,-22.80126953125
88.7451171875,-25.1513671875
85.7763671875,-28.415283203125
82.634765625,-31.16015625
79.845703125,-32.25048828125
77.7568359375,-31.396728515625
76.4921875,-29.1826171875
75.9833984375,-26.620849609375
76.0458984375,-24.526611328125
76.416015625,-23.106689453125
76.818359375,-21.966064453125
76.994140625,-20.48974609375
76.7939453125,-18.37841796875
76.2392578125,-15.98193359375
75.5361328125,-14.2392578125
75.0078125,-14.201416015625
74.9208984375,-16.44677734375
75.3369140625,-20.697021484375
76.08203125,-25.890869140625
76.8486328125,-30.624267578125
77.431640625,-33.734130859375
77.9130859375,-34.716064453125
78.6416015625,-33.83837890625
79.9833984375,-31.954833984375
81.9716796875,-30.1142578125
84.1025390625,-29.16943359375
85.4580078125,-29.4619140625
85.11328125,-30.72509765625
82.6044921875,-32.220458984375
78.201171875,-33.07861328125
72.8154296875,-32.685791015625
67.6455078125,-30.975341796875
63.7041015625,-28.486572265625
61.4833984375,-26.146240234375
60.8564453125,-24.85400390625
61.2509765625,-25.072998046875
61.9365234375,-26.61083984375
62.3271484375,-28.71142578125
62.13671875,-30.395751953125
61.380859375,-30.884521484375
60.25390625,-29.929443359375
58.9599609375,-27.935791015625
57.58203125,-25.830810546875
56.115234375,-24.694091796875
54.6220703125,-25.259765625
53.3681640625,-27.55078125
52.7998046875,-30.818603515625
53.345703125,-33.845703125
55.15234375,-35.474365234375
57.9267578125,-35.11181640625
60.994140625,-33
63.4970703125,-30.09716796875
64.6728515625,-27.647705078125
64.126953125,-26.612060546875
62.0556640625,-27.272216796875
59.26171875,-29.1669921875
56.9423828125,-31.41064453125
56.2216796875,-33.169921875
57.6796875,-34.064453125
61.0830078125,-34.248046875
65.4931640625,-34.191162109375
69.6767578125,-34.333740234375
72.59765625,-34.83251953125
73.7861328125,-35.540771484375
73.4375,-36.189453125
72.1708984375,-36.61572265625
70.646484375,-36.872802734375
69.283203125,-37.146484375
68.2373046875,-37.551513671875
67.568359375,-38.017333984375
67.365234375,-38.32373046875
67.7119140625,-38.2578125
68.5576171875,-37.762451171875
69.607421875,-36.95654296875
70.404296875,-36.0595703125
70.5400390625,-35.2841796875
69.8857421875,-34.775634765625
68.703125,-34.61376953125
67.5166015625,-34.8046875
66.8193359375,-35.2490234375
66.8232421875,-35.723388671875
67.3994140625,-35.947021484375
68.22265625,-35.70849609375
68.990234375,-34.99072265625
69.525390625,-34.00830078125
69.779296875,-33.138916015625
69.783203125,-32.790771484375
69.6474609375,-33.28759765625
69.5556640625,-34.79248046875
69.7333984375,-37.274169921875
70.3701171875,-40.480712890625
71.5380859375,-43.935791015625
73.1748046875,-47.011962890625
75.11328125,-49.103271484375
77.158203125,-49.8505859375
79.0810546875,-49.311767578125
80.6337890625,-47.95166015625
81.5439453125,-46.447998046875
81.599609375,-45.387939453125
80.7744140625,-45.025146484375
79.296875,-45.234375
77.599609375,-45.687744140625
76.15234375,-46.103515625
75.3115234375,-46.392333984375
75.24609375,-46.6044921875
75.9912109375,-46.79296875
77.49609375,-46.894287109375
79.6142578125,-46.760009765625
82.05078125,-46.277099609375
84.345703125,-45.50634765625
85.9853515625,-44.694580078125
86.6484375,-44.14453125
86.404296875,-44.025390625
85.74609375,-44.234619140625
85.3427734375,-44.485595703125
85.65625,-44.539306640625
86.6357421875,-44.41796875
87.7470703125,-44.4033203125
88.287109375,-44.82421875
87.8388671875,-45.8203125
86.5537109375,-47.253173828125
85.0498046875,-48.7841796875
84.048828125,-50.025146484375
83.923828125,-50.673828125
84.5029296875,-50.6015625
85.19921875,-49.91064453125
85.3798828125,-48.938232421875
84.7021484375,-48.19970703125
83.2763671875,-48.249267578125
81.5927734375,-49.477294921875
80.30859375,-51.858154296875
79.9931640625,-54.81982421875
80.955078125,-57.38232421875
83.1484375,-58.603515625
86.2041015625,-58.1005859375
89.5126953125,-56.331298828125
92.3740234375,-54.39697265625
94.201171875,-53.442138671875
94.7119140625,-54
94.0517578125,-55.6884765625
92.7451171875,-57.445068359375
91.5068359375,-58.16455078125
90.958984375,-57.2890625
91.388671875,-55.0322265625
92.634765625,-52.13232421875
94.17578125,-49.403076171875
95.4130859375,-47.38037109375
95.974609375,-46.1953125
95.92578125,-45.68505859375
95.7275390625,-45.5244140625
96.0341796875,-45.33935546875
97.3759765625,-44.78662109375
99.888671875,-43.666015625
103.197265625,-42.028564453125
106.48828125,-40.2041015625
108.7900390625,-38.688720703125
109.345703125,-37.918701171875
107.9111328125,-38.053466796875
104.916015625,-38.8994140625
101.326171875,-40.0205078125
98.2646484375,-40.918701171875
96.5615234375,-41.22021484375
96.4482421875,-40.775146484375
97.5654296875,-39.692138671875
99.2548828125,-38.27685546875
100.9208984375,-36.92041015625
102.265625,-35.96435546875
103.2802734375,-35.56494140625
104.0986328125,-35.60791015625
104.84375,-35.722900390625
105.5458984375,-35.4287109375
106.1513671875,-34.35205078125
106.5615234375,-32.43896484375
106.6552734375,-30.030029296875
106.30078125,-27.76611328125
105.3818359375,-26.302001953125
103.8935546875,-25.986572265625
102.0205078125,-26.6884765625
100.171875,-27.9130859375
98.8583984375,-29.1171875
98.453125,-29.974609375
98.962890625,-30.425537109375
100.0107421875,-30.476806640625
101.0263671875,-30.014404296875
101.5625,-28.783203125
101.5185546875,-26.61865234375
101.171875,-23.756103515625
101.02734375,-20.934326171875
101.5791015625,-19.149169921875
103.0927734375,-19.140625
105.5009765625,-20.929931640625
108.3984375,-23.678955078125
111.1884765625,-26.018310546875
113.265625,-26.683837890625
114.19140625,-25.183349609375
113.79296875,-22.099365234375
112.1650390625,-18.865234375
109.626953125,-17.122314453125
106.6201171875,-17.9619140625
103.599609375,-21.425537109375
100.9013671875,-26.50537109375
98.6845703125,-31.626220703125
96.92578125,-35.34326171875
95.48828125,-36.87890625
94.234375,-36.288330078125
93.12109375,-34.282958984375
92.2236328125,-31.880126953125
91.6689453125,-30.03564453125
91.505859375,-29.325439453125
91.6201171875,-29.731201171875
91.7744140625,-30.6494140625
91.7509765625,-31.1484375
91.5107421875,-30.43310546875
91.2353515625,-28.278564453125
91.21875,-25.2001953125
91.6689453125,-22.25439453125
92.521484375,-20.567138671875
93.4052734375,-20.821044921875
93.7587890625,-22.95458984375
93.115234375,-26.18603515625
91.4072265625,-29.32275390625
89.068359375,-31.189697265625
86.861328125,-31.00634765625
85.3916015625,-28.65185546875
84.609375,-24.739013671875
83.6376953125,-20.470947265625
81.0751953125,-17.21484375
75.626953125,-15.9345703125
66.69921875,-16.730712890625
54.6298828125,-18.767578125
40.44921875,-20.64013671875
25.3818359375,-20.988525390625
10.3955078125,-19.06640625
-3.982421875,-14.9912109375
-17.57421875,-9.604248046875
-30.3876953125,-4.03759765625
-42.4990234375,0.732666015625
-53.9599609375,4.1669921875
-64.6884765625,6.173095703125
-74.31640625,6.955078125
-82.185546875,6.833251953125
-87.57421875,6.114501953125
-90.111328125,5.05859375
-90.1181640625,3.931396484375
-88.650390625,3.084716796875
-87.1767578125,2.919677734375
-86.9912109375,3.680908203125
-88.6640625,5.195068359375
-91.822265625,6.8037109375
-95.41015625,7.6162109375
-98.2451171875,6.958984375
-99.625,4.763671875
-99.6279296875,1.63330078125
-99.0185546875,-1.438720703125
-98.779296875,-3.5615234375
-99.5400390625,-4.388916015625
-101.21484375,-4.2919921875
-103.0458984375,-4.15478515625
-104.0244140625,-4.89306640625
-103.455078125,-6.934814453125
-101.3671875,-9.968994140625
-98.53515625,-13.067138671875
-96.1103515625,-15.163818359375
-95.0625,-15.6083984375
-95.7333984375,-14.541748046875
-97.7099609375,-12.897705078125
-100.0615234375,-11.96337890625
-101.8427734375,-12.712646484375
-102.5966796875,-15.275634765625
-102.638671875,-18.89990234375
-102.912109375,-22.410400390625
-104.4892578125,-24.829345703125
-107.9033203125,-25.772705078125
-112.703125,-25.484619140625
-117.517578125,-24.58642578125
-120.65234375,-23.758544921875
-120.9580078125,-23.435546875
-118.421875,-23.67529296875
-114.17578125,-24.205078125
-109.8955078125,-24.631103515625
-106.9462890625,-24.6572265625
-105.779296875,-24.22314453125
-105.84765625,-23.52587890625
-106.0390625,-22.954833984375
-105.345703125,-22.96533203125
-103.3544921875,-23.900634765625
-100.34765625,-25.840087890625
-97.0234375,-28.5068359375
-94.1044921875,-31.28271484375
-92.0224609375,-33.363525390625
-90.82421875,-34.05419921875
-90.220703125,-33.097412109375
-89.7607421875,-30.866455078125
-89.0380859375,-28.2177734375
-87.86328125,-26.084716796875
-86.3232421875,-25.064697265625
-84.67578125,-25.274169921875
-83.1552734375,-26.50390625
-81.8359375,-28.449951171875
-80.6103515625,-30.80859375
-79.330078125,-33.189697265625
-78.005859375,-34.99267578125
-76.916015625,-35.473388671875
-76.5732421875,-34.05029296875
-77.4892578125,-30.726318359375
-79.87109375,-26.291748046875
-83.4482421875,-22.1005859375
-87.51953125,-19.458251953125
-91.2080078125,-19.006591796875
-93.771484375,-20.481201171875
-94.84765625,-22.948486328125
-94.5615234375,-25.341796875
-93.421875,-26.986572265625
-92.1005859375,-27.82861328125
-91.2099609375,-28.301513671875
-91.138671875,-28.935791015625
-92.001953125,-29.9697265625
-93.634765625,-31.22314453125
-95.634765625,-32.298583984375
-97.43359375,-32.952880859375
-98.435546875,-33.336181640625
-98.23828125,-33.920654296875
-96.8525390625,-35.159912109375
-94.7802734375,-37.099853515625
-92.865234375,-39.265380859375
-91.958984375,-40.900634765625
-92.5224609375,-41.416015625
-94.416015625,-40.740478515625
-96.93359375,-39.328857421875
-99.1318359375,-37.890380859375
-100.2900390625,-37.03271484375
-100.2880859375,-37.041015625
-99.7021484375,-37.8857421875
-99.5361328125,-39.4169921875
-100.73046875,-41.57470703125
-103.666015625,-44.47802734375
-107.9267578125,-48.251708984375
-112.4375,-52.703369140625
-115.9462890625,-57.115234375
-117.5966796875,-60.383544921875
-117.294921875,-61.484130859375
-115.681640625,-60.0341796875
-113.7392578125,-56.6015625
-112.2900390625,-52.583984375
-111.6689453125,-49.670166015625
-111.6865234375,-49.1376953125
-111.8701171875,-51.323974609375
-111.8115234375,-55.504150390625
-111.4169921875,-60.239990234375
-110.953125,-64.005859375
-110.841796875,-65.81005859375
-111.333984375,-65.53076171875
-112.2978515625,-63.8916015625
-113.2333984375,-62.125244140625
-113.5625,-61.47265625
-112.9931640625,-62.68017578125
-111.71484375,-65.718017578125
-110.3046875,-69.81787109375
-109.4189453125,-73.79736328125
-109.482421875,-76.545166015625
-110.560546875,-77.456298828125
-112.396484375,-76.62939453125
-114.529296875,-74.722412109375
-116.466796875,-72.575439453125
-117.8203125,-70.848876953125
-118.4052734375,-69.857177734375
-118.2841796875,-69.665283203125
-117.69140625,-70.299560546875
-116.9228515625,-71.859130859375
-116.205078125,-74.427001953125
-115.6103515625,-77.83935546875
-115.0791015625,-81.56396484375
-114.5322265625,-84.867431640625
-113.9853515625,-87.193603515625
-113.580078125,-88.4638671875
-113.513671875,-89.033935546875
-113.91796875,-89.34326171875
-114.7646484375,-89.5546875
-115.7939453125,-89.437744140625
-116.55859375,-88.586669921875
-116.57421875,-86.7880859375
-115.537109375,-84.31494140625
-113.5322265625,-81.92431640625
-111.0625,-80.5458984375
-108.904296875,-80.828369140625
-107.806640625,-82.763671875
-108.224609375,-85.6376953125
-110.1748046875,-88.364013671875
-113.267578125,-90.0478515625
-116.8447265625,-90.440673828125
-120.158203125,-90.040283203125
-122.541015625,-89.729248046875
-123.5556640625,-90.229248046875
-123.1103515625,-91.677490234375
-121.478515625,-93.587646484375
-119.20703125,-95.149169921875
-116.8994140625,-95.701171875
-114.955078125,-95.067626953125
-113.4609375,-93.61572265625
-112.26953125,-92.057861328125
-111.19140625,-91.122802734375
-110.185546875,-91.25927734375
-109.4052734375,-92.455810546875
-109.123046875,-94.2060546875
-109.5673828125,-95.673828125
-110.7783203125,-96.0341796875
-112.55859375,-94.876953125
-114.5625,-92.446044921875
-116.44921875,-89.56494140625
-118.01171875,-87.26123046875
-119.21875,-86.294677734375
-120.130859375,-86.828857421875
-120.8017578125,-88.415771484375
-121.20703125,-90.263427734375
-121.2958984375,-91.63818359375
-121.08203125,-92.169189453125
-120.7216796875,-91.9169921875
-120.474609375,-91.181396484375
-120.578125,-90.209716796875
-121.1318359375,-89.021728515625
-122.052734375,-87.48486328125
-123.107421875,-85.58056640625
-124.0166015625,-83.6171875
-124.556640625,-82.141845703125
-124.6357421875,-81.634521484375
-124.3466796875,-82.144287109375
-123.9482421875,-83.168212890625
-123.7724609375,-83.816650390625
-124.0693359375,-83.212890625
-124.8603515625,-80.94775390625
-125.85546875,-77.347900390625
-126.51171875,-73.40234375
-126.2236328125,-70.350341796875
-124.60546875,-69.154296875
-121.74609375,-70.106689453125
-118.30078125,-72.740478515625
-115.3193359375,-76.055908203125
-113.84765625,-78.983154296875
-114.482421875,-80.870361328125
-117.1005859375,-81.738037109375
-120.884765625,-82.177734375
-124.642578125,-82.910400390625
-127.2783203125,-84.30029296875
-128.1826171875,-86.101806640625
-127.4072265625,-87.597412109375
-125.5009765625,-88.025146484375
-123.1552734375,-87.04638671875
-120.865234375,-84.985595703125
-118.7822265625,-82.73583984375
-116.8212890625,-81.33544921875
-114.8603515625,-81.412353515625
-112.8642578125,-82.752197265625
-110.880859375,-84.286376953125
-108.97265625,-84.57421875
-107.1748046875,-82.5556640625
-105.5087890625,-78.17578125
-104.015625,-72.5322265625
-102.798828125,-67.42138671875
-102.0224609375,-64.50390625
-101.861328125,-64.506591796875
-102.3779296875,-66.939453125
-103.41796875,-70.46728515625
-104.6318359375,-73.705078125
-105.6298828125,-75.9287109375
-106.1728515625,-77.2861328125
-106.244140625,-78.467529296875
-105.982421875,-80.093017578125
-105.5361328125,-82.283935546875
-104.947265625,-84.634765625
-104.162109375,-86.5458984375
-103.1513671875,-87.643798828125
-102.041015625,-87.9970703125
-101.146484375,-88.04345703125
-100.828125,-88.28955078125
-101.2568359375,-88.980712890625
-102.240234375,-89.925048828125
-103.244140625,-90.55517578125
-103.6455078125,-90.203125
-103.0859375,-88.476318359375
-101.68359375,-85.554443359375
-99.9775390625,-82.2265625
-98.62109375,-79.603271484375
-98.0322265625,-78.599609375
-98.19921875,-79.44091796875
-98.7470703125,-81.47802734375
-99.2021484375,-83.494873046875
-99.314453125,-84.330078125
-99.2109375,-83.48095703125
-99.2939453125,-81.32177734375
-99.9462890625,-78.8466796875
-101.2314453125,-77.147216796875
-102.8017578125,-76.879638671875
-104.080078125,-78.00390625
-104.5546875,-79.86962890625
-104.0615234375,-81.55224609375
-102.8408203125,-82.22119140625
-101.4189453125,-81.41796875
-100.3671875,-79.18701171875
-100.01953125,-76.048583984375
-100.314453125,-72.843505859375
-100.7880859375,-70.4794921875
-100.78515625,-69.646240234375
-99.7861328125,-70.60302734375
-97.708984375,-73.111572265625
-95,-76.54541015625
-92.482421875,-80.12353515625
-90.98046875,-83.16552734375
-90.9755859375,-85.25927734375
-92.3818359375,-86.3330078125
-94.603515625,-86.62548828125
-96.802734375,-86.58935546875
-98.2373046875,-86.71923828125
-98.533203125,-87.357666015625
-97.798828125,-88.5791015625
-96.580078125,-90.19482421875
-95.6748046875,-91.900146484375
-95.7890625,-93.4306640625
-96.9990234375,-94.65576171875
-98.31640625,-95.537353515625
-97.72265625,-95.975830078125
-92.841796875,-95.65380859375
-81.9755859375,-94.013916015625
-64.953125,-90.461669921875
-43.3408203125,-84.68115234375
-19.849609375,-76.90478515625
2.7529296875,-67.927001953125
22.66796875,-58.859375
39.5341796875,-50.751953125
54.1298828125,-44.257568359375
67.642578125,-39.541748046875
80.8828125,-36.4375
93.8427734375,-34.712158203125
105.67578125,-34.217529296875
115.0390625,-34.87841796875
120.7158203125,-36.555908203125
122.28125,-38.962646484375
120.4833984375,-41.69091796875
117.068359375,-44.3603515625
114.0732421875,-46.805908203125
112.95703125,-49.159912109375
114.048828125,-51.7373046875
116.603515625,-54.783447265625
119.3564453125,-58.26025390625
121.240234375,-61.80810546875
121.8388671875,-64.878173828125
121.458984375,-66.95166015625
120.8173828125,-67.7333984375
120.564453125,-67.305908203125
120.8701171875,-66.2119140625
121.3017578125,-65.359130859375
121.033203125,-65.681640625
119.318359375,-67.681884765625
115.9697265625,-71.112060546875
111.5869140625,-75.040771484375
107.3642578125,-78.251708984375
104.5703125,-79.766357421875
103.9453125,-79.2373046875
105.3564453125,-77.041259765625
107.888671875,-74.051513671875
110.306640625,-71.205810546875
111.6220703125,-69.099609375
111.5009765625,-67.844482421875
110.3154296875,-67.21826171875
108.8857421875,-66.940673828125
108.0927734375,-66.8134765625
108.5185546875,-66.65576171875
110.2587890625,-66.1845703125
112.947265625,-65.037353515625
115.931640625,-62.95703125
118.482421875,-60.015625
119.892578125,-56.718017578125
119.544921875,-53.90087890625
117.0361328125,-52.424560546875
112.46484375,-52.8115234375
106.708984375,-55.006591796875
101.4140625,-58.412109375
98.505859375,-62.18994140625
99.3291015625,-65.621826171875
103.9052734375,-68.31884765625
110.7470703125,-70.20361328125
117.44140625,-71.373046875
121.671875,-71.933349609375
122.1640625,-71.906494140625
119.091796875,-71.24072265625
113.8515625,-69.935302734375
108.373046875,-68.207763671875
104.330078125,-66.54345703125
102.5654296875,-65.53564453125
102.9140625,-65.565673828125
104.4013671875,-66.54638671875
105.708984375,-67.9462890625
105.751953125,-69.126220703125
104.130859375,-69.7529296875
101.2841796875,-69.977294921875
98.2119140625,-70.213134765625
95.95703125,-70.72509765625
95.091796875,-71.390625
95.490234375,-71.819091796875
96.4580078125,-71.75244140625
97.107421875,-71.36767578125
96.7978515625,-71.24560546875
95.38671875,-72.010009765625
93.228515625,-73.891845703125
90.9560546875,-76.549560546875
89.1865234375,-79.24609375
88.306640625,-81.264892578125
88.3720703125,-82.2666015625
89.111328125,-82.38916015625
90.0244140625,-82.0888671875
90.5087890625,-81.839599609375
90.01953125,-81.883544921875
88.2548828125,-82.154541015625
85.3056640625,-82.3798828125
81.7119140625,-82.263427734375
78.2978515625,-81.6396484375
75.828125,-80.538330078125
74.662109375,-79.198486328125
74.568359375,-78.002197265625
74.89453125,-77.335205078125
74.9384765625,-77.3701171875
74.365234375,-77.90576171875
73.421875,-78.40771484375
72.80078125,-78.301025390625
73.24609375,-77.3349609375
75.1298828125,-75.756103515625
78.244140625,-74.172607421875
81.912109375,-73.159912109375
85.296875,-72.893310546875
87.7275390625,-72.98095703125
88.888671875,-72.6826171875
88.8515625,-71.376220703125
88.00390625,-68.993408203125
86.900390625,-66.114990234375
86.07421875,-63.693603515625
85.8642578125,-62.57861328125
86.287109375,-63.130126953125
87.029296875,-65.083740234375
87.59765625,-67.69384765625
87.587890625,-70.05615234375
86.96484375,-71.476318359375
86.1923828125,-71.776611328125
86.1083984375,-71.3798828125
87.544921875,-71.10009765625
90.8681640625,-71.699951171875
95.671875,-73.461181640625
100.8359375,-76.01708984375
104.978515625,-78.51904296875
107.087890625,-80.06201171875
106.9755859375,-80.1162109375
105.30078125,-78.74365234375
103.201171875,-76.52880859375
101.7353515625,-74.313232421875
101.4853515625,-72.837158203125
102.4521484375,-72.44287109375
104.2236328125,-72.955810546875
106.240234375,-73.755615234375
107.9736328125,-74.039794921875
109.0234375,-73.19970703125
109.1630859375,-71.16845703125
108.453125,-68.572509765625
107.291015625,-66.50732421875
106.314453125,-66.041015625
106.109375,-67.673583984375
106.876953125,-71.037841796875
108.27734375,-74.998779296875
109.5888671875,-78.104736328125
110.109375,-79.19091796875
109.560546875,-77.871826171875
108.2880859375,-74.661376953125
107.15625,-70.697021484375
107.1865234375,-67.203857421875
109.099609375,-65.014404296875
112.9482421875,-64.31884765625
118.03125,-64.72705078125
123.1943359375,-65.515869140625
127.318359375,-65.96630859375
129.7568359375,-65.669921875
130.4990234375,-64.70849609375
130.001953125,-63.60546875
128.888671875,-63.057861328125
127.6806640625,-63.532470703125
126.693359375,-64.991455078125
126.0751953125,-66.890625
125.884765625,-68.46484375
126.134765625,-69.143310546875
126.7744140625,-68.850830078125
127.6591796875,-67.995849609375
128.5625,-67.154541015625
129.26953125,-66.656005859375
129.689453125,-66.385986328125
129.927734375,-65.928466796875
130.2451171875,-64.90673828125
130.9482421875,-63.2529296875
132.228515625,-61.275146484375
134.0615234375,-59.497802734375
136.1982421875,-58.4443359375
138.2734375,-58.470947265625
139.994140625,-59.66162109375
141.2607421875,-61.77880859375
142.1337890625,-64.28271484375
142.697265625,-66.479248046875
142.9072265625,-67.775390625
142.6416015625,-67.927734375
141.88671875,-67.121826171875
140.8955078125,-65.85888671875
140.1474609375,-64.69189453125
140.0830078125,-63.96044921875
140.814453125,-63.654296875
142.01953125,-63.491943359375
143.1064453125,-63.15576171875
143.556640625,-62.56689453125
143.208984375,-61.9931640625
142.357421875,-61.921142578125
141.6005859375,-62.751708984375
141.548828125,-64.474853515625
142.5712890625,-66.58837890625
144.6630859375,-68.3095703125
147.4638671875,-69.004150390625
150.3779296875,-68.530029296875
152.7412109375,-67.313232421875
153.98046875,-66.094970703125
153.787109375,-65.5146484375
152.2451171875,-65.766357421875
149.869140625,-66.499755859375
147.4580078125,-67.021240234375
145.78125,-66.6669921875
145.2314453125,-65.175048828125
145.6328125,-62.873046875
146.330078125,-60.552734375
146.5205078125,-59.122802734375
145.6552734375,-59.1806640625
143.68359375,-60.74072265625
141.044921875,-63.24267578125
138.4404296875,-65.816162109375
136.51953125,-67.6767578125
135.6474609375,-68.433837890625
135.798828125,-68.18408203125
136.564453125,-67.360107421875
137.279296875,-66.47900390625
137.2275390625,-65.893310546875
135.974609375,-65.6083984375
133.587890625,-65.19287109375
130.619140625,-63.873291015625
127.8193359375,-60.786376953125
125.7919921875,-55.312255859375
124.767578125,-47.2978515625
124.5673828125,-37.048828125
124.7802734375,-24.98974609375
125.07421875,-11.180908203125
125.427734375,4.880859375
126.0458984375,23.926513671875
127.0263671875,46.33935546875
128.087890625,71.873291015625
128.7080078125,99.82373046875
128.5478515625,129.43359375
127.767578125,160.159912109375
126.9521484375,191.639404296875
126.744140625,223.40234375
127.4658203125,254.576416015625
128.96875,283.78955078125
130.7646484375,309.4169921875
132.3115234375,330.0751953125
133.2861328125,345.118896484375
133.63671875,354.83154296875
133.4560546875,360.259765625
132.841796875,362.79541015625
131.9580078125,363.7353515625
131.1943359375,363.882080078125
131.1884765625,363.296875
132.5703125,361.345458984375
135.58984375,357.078125
139.8974609375,349.771484375
144.65625,339.312255859375
148.9189453125,326.220458984375
151.951171875,311.40478515625
153.3857421875,295.833984375
153.1865234375,280.33837890625
151.5732421875,265.492431640625
148.984375,251.566162109375
146.0166015625,238.5146484375
143.3154296875,226.066650390625
141.451171875,213.867919921875
140.826171875,201.597412109375
141.5966796875,188.978515625
143.5986328125,175.7666015625
146.30078125,161.806396484375
148.92578125,147.168212890625
150.7490234375,132.235595703125
151.42578125,117.635498046875
151.134765625,104.0556640625
150.4306640625,92.017822265625
149.9453125,81.73046875
150.07421875,73.05126953125
150.865234375,65.550048828125
152.0859375,58.655029296875
153.4072265625,51.8046875
154.548828125,44.566650390625
155.3369140625,36.710205078125
155.63671875,28.2509765625
155.3037109375,19.460205078125
154.2275390625,10.84521484375
152.4375,3.067626953125
150.19921875,-3.23681640625
147.9326171875,-7.7314453125
146.0341796875,-10.62646484375
144.712890625,-12.689453125
143.974609375,-14.91357421875
143.71875,-17.953857421875
143.83203125,-21.697998046875
144.2177734375,-25.295166015625
144.7626953125,-27.7236328125
145.3291015625,-28.548095703125
145.755859375,-28.31689453125
145.92578125,-28.3154296875
145.8193359375,-29.778076171875
145.548828125,-33.107666015625
145.275390625,-37.632568359375
145.091796875,-42.046875
144.9169921875,-45.162109375
144.560546875,-46.43603515625
143.8466796875,-46.026123046875
142.7568359375,-44.513916015625
141.4423828125,-42.581298828125
140.11328125,-40.790771484375
138.908203125,-39.443115234375
137.826171875,-38.483154296875
136.7685546875,-37.543212890625
135.6474609375,-36.201171875
134.46484375,-34.372802734375
133.3681640625,-32.5576171875
132.6337890625,-31.64501953125
132.5986328125,-32.291748046875
133.5087890625,-34.25537109375
135.3193359375,-36.266845703125
137.5712890625,-36.678466796875
139.517578125,-34.53759765625
140.451171875,-30.34423828125
140.109375,-25.901611328125
138.83984375,-23.32666015625
137.4208984375,-23.864990234375
136.6220703125,-27.29541015625
136.7958984375,-32.202392578125
137.744140625,-36.820068359375
138.9296875,-39.83642578125
139.8076171875,-40.733642578125
140.068359375,-39.665283203125
139.6767578125,-37.164794921875
138.7548828125,-33.950439453125
137.4833984375,-30.88330078125
136.04296875,-28.841552734375
134.6240234375,-28.42822265625
133.3662109375,-29.588623046875
132.3369140625,-31.5205078125
131.5048828125,-33.03271484375
130.83984375,-33.214599609375
130.4248046875,-32.017578125
130.5224609375,-30.34130859375
131.482421875,-29.536865234375
133.53125,-30.5869140625
136.5400390625,-33.48388671875
139.9697265625,-37.204345703125
143.04296875,-40.320556640625
145.048828125,-41.82080078125
145.6455078125,-41.626220703125
144.998046875,-40.469970703125
143.701171875,-39.29638671875
142.5517578125,-38.626953125
142.2314453125,-38.3388671875
143.068359375,-37.93994140625
144.9072265625,-37.05859375
147.1982421875,-35.76416015625
149.2255859375,-34.513427734375
150.4267578125,-33.783935546875
150.658203125,-33.70166015625
150.2744140625,-33.9345703125
149.9638671875,-33.906494140625
150.4130859375,-33.202392578125
151.9892578125,-31.904541015625
154.5751953125,-30.61083984375
157.64453125,-30.102783203125
160.5048828125,-30.8447265625
162.560546875,-32.6298828125
163.47265625,-34.63671875
163.1806640625,-35.87646484375
161.849609375,-35.743408203125
159.8076171875,-34.326171875
157.5205078125,-32.34619140625
155.5185546875,-30.7939453125
154.23828125,-30.460693359375
153.830078125,-31.612060546875
154.0380859375,-33.92236328125
154.2685546875,-36.66845703125
153.865234375,-39.06298828125
152.4814453125,-40.599365234375
150.306640625,-41.255859375
148.044921875,-41.505859375
146.55859375,-42.044677734375
146.4306640625,-43.393798828125
147.6328125,-45.590576171875
149.54296875,-48.17822265625
151.291015625,-50.48583984375
152.2255859375,-52.030517578125
152.1982421875,-52.731201171875
151.54296875,-52.820556640625
150.7666015625,-52.57275390625
150.2119140625,-52.086181640625
149.9228515625,-51.304443359375
149.7646484375,-50.226318359375
149.6533203125,-49.115234375
149.7236328125,-48.505615234375
150.2783203125,-48.97900390625
151.5595703125,-50.7861328125
153.509765625,-53.548583984375
155.69921875,-56.272216796875
157.5,-57.6953125
158.3759765625,-56.873291015625
158.1279296875,-53.66064453125
156.962890625,-48.865234375
155.3896484375,-43.962646484375
154.01953125,-40.48779296875
153.3076171875,-39.39111328125
153.3759765625,-40.688720703125
153.9658203125,-43.558837890625
154.5458984375,-46.811767578125
154.5390625,-49.40673828125
153.603515625,-50.75537109375
151.8271484375,-50.723388671875
149.76953125,-49.48876953125
148.2421875,-47.4072265625
147.9443359375,-44.89990234375
149.130859375,-42.3525390625
151.482421875,-40.024169921875
154.2431640625,-38.0302734375
156.5556640625,-36.39306640625
157.8046875,-35.122802734375
157.82421875,-34.288330078125
156.8720703125,-34.029296875
155.4462890625,-34.48828125
154.03515625,-35.69140625
152.958984375,-37.464599609375
152.28125,-39.46630859375
151.8466796875,-41.3056640625
151.4306640625,-42.664794921875
150.92578125,-43.34814453125
150.4658203125,-43.270263671875
150.412109375,-42.466796875
151.1826171875,-41.131103515625
152.99609375,-39.618896484375
155.6376953125,-38.329833984375
158.455078125,-37.519775390625
160.576171875,-37.184326171875
161.3115234375,-37.122802734375
160.4609375,-37.12451171875
158.3994140625,-37.127197265625
155.931640625,-37.219482421875
153.953125,-37.4921875
153.095703125,-37.86279296875
153.498046875,-38.032958984375
154.78125,-37.640380859375
156.2333984375,-36.539794921875
157.0859375,-35.031494140625
156.7958984375,-33.8154296875
155.267578125,-33.623779296875
152.890625,-34.733642578125
150.43359375,-36.709716796875
148.736328125,-38.5712890625
148.3974609375,-39.29541015625
149.587890625,-38.41650390625
152.0380859375,-36.337158203125
155.1953125,-34.200927734375
158.3818359375,-33.301025390625
160.958984375,-34.394287109375
162.4453125,-37.3447265625
162.6181640625,-41.2587890625
161.5693359375,-44.97900390625
159.697265625,-47.56982421875
157.5966796875,-48.585693359375
155.8671875,-48.08935546875
154.88671875,-46.5107421875
154.6357421875,-44.4560546875
154.6884765625,-42.53955078125
154.41796875,-41.276611328125
153.3212890625,-40.983642578125
151.2890625,-41.668701171875
148.69140625,-43.007568359375
146.2197265625,-44.465576171875
144.607421875,-45.55615234375
144.2939453125,-46.062744140625
145.2294921875,-46.086181640625
146.880859375,-45.91259765625
148.4716796875,-45.836669921875
149.32421875,-46.035400390625
149.158203125,-46.552001953125
148.1748046875,-47.3349609375
146.9228515625,-48.314208984375
146.0419921875,-49.42138671875
146.0126953125,-50.5361328125
147.0166015625,-51.41357421875
148.8828125,-51.698486328125
151.189453125,-51.08349609375
153.416015625,-49.540283203125
155.1328125,-47.4384765625
156.1318359375,-45.4482421875
156.4521484375,-44.26025390625
156.3251953125,-44.2685546875
156.064453125,-45.40478515625
155.9296875,-47.172607421875
156.0380859375,-48.87109375
156.3505859375,-49.900390625
156.7333984375,-50.00732421875
157.0625,-49.3603515625
157.3056640625,-48.4384765625
157.5537109375,-47.786865234375
157.9560546875,-47.762939453125
158.6201171875,-48.352294921875
159.494140625,-49.130615234375
160.3125,-49.443603515625
160.666015625,-48.768798828125
160.2109375,-47.07666015625
158.912109375,-44.94775390625
157.169921875,-43.33984375
155.6650390625,-43.08447265625
155.025390625,-44.422119140625
155.4775390625,-46.811279296875
156.744140625,-49.16943359375
158.2177734375,-50.40234375
159.30078125,-49.925048828125
159.69140625,-47.9091796875
159.48828125,-45.169677734375
159.068359375,-42.770751953125
158.85546875,-41.5537109375
159.0625,-41.74609375
159.5986328125,-42.83203125
160.1083984375,-43.76953125
160.130859375,-43.48095703125
159.318359375,-41.392333984375
157.6083984375,-37.756103515625
155.3251953125,-33.568359375
153.1259765625,-30.111572265625
151.779296875,-28.3486328125
151.869140625,-28.48388671875
153.568359375,-29.904052734375
156.5625,-31.47802734375
160.181640625,-32.030517578125
163.63671875,-30.787841796875
166.287109375,-27.6572265625
167.8037109375,-23.3134765625
168.212890625,-19.022705078125
167.7939453125,-16.196533203125
166.9306640625,-15.76904296875
165.94921875,-17.67919921875
165.0302734375,-20.81298828125
164.2119140625,-23.52783203125
163.4990234375,-24.459228515625
162.9921875,-23.188232421875
162.923828125,-20.39013671875
163.5869140625,-17.41796875
165.1240234375,-15.607177734375
167.3935546875,-15.70166015625
169.947265625,-17.656005859375
172.16796875,-20.799072265625
173.466796875,-24.164306640625
173.4697265625,-26.800048828125
172.140625,-28.03369140625
169.796875,-27.660400390625
167.0361328125,-26.032958984375
164.5546875,-23.9482421875
162.9296875,-22.310546875
162.4248046875,-21.741943359375
162.9072265625,-22.3359375
163.935546875,-23.7470703125
164.9892578125,-25.46142578125
165.751953125,-27.094970703125
166.275390625,-28.498779296875
166.935546875,-29.69482421875
168.1552734375,-30.73876953125
170.119140625,-31.60009765625
172.6103515625,-32.126708984375
175.11328125,-32.10986328125
177.0703125,-31.395751953125
178.1298828125,-29.9658203125
178.2607421875,-27.962646484375
177.72265625,-25.671630859375
176.9248046875,-23.501953125
176.2734375,-21.889892578125
176.0146484375,-21.1357421875
176.185546875,-21.24462890625
176.6572265625,-21.88232421875
177.201171875,-22.50341796875
177.5927734375,-22.561279296875
177.66796875,-21.7294921875
177.4072265625,-20.029052734375
176.9951171875,-17.820068359375
176.7705078125,-15.679931640625
177.0869140625,-14.156494140625
178.1201171875,-13.524169921875
179.767578125,-13.610595703125
181.662109375,-13.828369140625
183.3017578125,-13.41259765625
184.197265625,-11.851318359375
184.04296875,-9.2744140625
182.8330078125,-6.5380859375
180.8876953125,-4.85693359375
178.7080078125,-5.136962890625
176.724609375,-7.395751953125
175.10546875,-10.693359375
173.7080078125,-13.653564453125
172.2060546875,-15.262451171875
170.3330078125,-15.44091796875
168.0380859375,-15.00244140625
165.5400390625,-15.016357421875
163.2109375,-16.01416015625
161.3798828125,-17.590087890625
160.228515625,-18.652099609375
159.7900390625,-18.1640625
160.0205078125,-15.867431640625
160.8359375,-12.524658203125
162.0537109375,-9.549560546875
163.326171875,-8.2607421875
164.208984375,-9.2099609375
164.3203125,-11.941162109375
163.53515625,-15.21630859375
162.048828125,-17.582763671875
160.3017578125,-17.989990234375
158.787109375,-16.21142578125
157.8779296875,-12.890625
157.7060546875,-9.26953125
158.1611328125,-6.709716796875
158.9912109375,-6.213623046875
159.9169921875,-8.08935546875
160.7138671875,-11.838623046875
161.24609375,-16.310546875
161.451171875,-20.117431640625
161.30078125,-22.14892578125
160.8076171875,-21.998291015625
160.0078125,-20.05615234375
158.9677734375,-17.261962890625
157.7890625,-14.63720703125
156.6103515625,-12.82080078125
155.6015625,-11.851806640625
154.89453125,-11.258544921875
154.50390625,-10.413818359375
154.2939453125,-8.920166015625
154.0400390625,-6.855224609375
153.53515625,-4.730712890625
152.736328125,-3.23291015625
151.830078125,-2.90380859375
151.1865234375,-3.932861328125
151.1357421875,-6.142822265625
151.7060546875,-9.131103515625
152.505859375,-12.453125
152.8740234375,-15.73388671875
152.2216796875,-18.659912109375
150.3525390625,-20.906982421875
147.57421875,-22.093994140625
144.52734375,-21.87548828125
141.8515625,-20.145751953125
139.900390625,-17.2255859375
138.642578125,-13.845458984375
137.7998046875,-10.890869140625
137.1005859375,-9.068603515625
136.49609375,-8.663818359375
136.177734375,-9.4990234375
136.4619140625,-11.087158203125
137.6025390625,-12.89306640625
139.65625,-14.562744140625
142.44140625,-16.017578125
145.5595703125,-17.37548828125
148.4580078125,-18.795654296875
150.5166015625,-20.339111328125
151.1708984375,-21.92919921875
150.0810546875,-23.447998046875
147.263671875,-24.854248046875
143.1396484375,-26.2646484375
138.45703125,-27.8779296875
134.091796875,-29.7958984375
130.78125,-31.860595703125
128.8916015625,-33.64794921875
128.3125,-34.680419921875
128.51171875,-34.755859375
128.7490234375,-34.137939453125
128.3642578125,-33.467529296875
127.04296875,-33.408447265625
124.9521484375,-34.262939453125
122.6748046875,-35.788330078125
120.98046875,-37.28857421875
120.5029296875,-37.917236328125
121.5126953125,-37.0869140625
123.798828125,-34.792236328125
126.7509765625,-31.6484375
129.5224609375,-28.625
131.2958984375,-26.556396484375
131.5244140625,-25.75
130.095703125,-25.9482421875
127.396484375,-26.60498046875
124.2021484375,-27.300048828125
121.4560546875,-27.988037109375
119.97265625,-28.929931640625
120.134765625,-30.3759765625
121.7470703125,-32.23291015625
124.1064453125,-34.01318359375
126.2607421875,-35.111328125
127.39453125,-35.218994140625
127.115234375,-34.548828125
125.5703125,-33.703125
123.33984375,-33.277587890625
121.1923828125,-33.4814453125
119.7724609375,-34.044921875
119.3701171875,-34.40478515625
119.83984375,-34.03564453125
120.7080078125,-32.733642578125
121.392578125,-30.711669921875
121.4169921875,-28.525390625
120.55078125,-26.844482421875
118.833984375,-26.165283203125
116.572265625,-26.620361328125
114.279296875,-27.964111328125
112.5732421875,-29.71826171875
111.9873046875,-31.390380859375
112.7314453125,-32.642333984375
114.546875,-33.375
116.7587890625,-33.70751953125
118.53125,-33.857421875
119.234375,-33.9658203125
118.7177734375,-34.0029296875
117.2939453125,-33.81103515625
115.501953125,-33.280517578125
113.7763671875,-32.472412109375
112.2529296875,-31.60205078125
110.8359375,-30.8896484375
109.384765625,-30.400634765625
107.9140625,-29.9951171875
106.6513671875,-29.419189453125
105.9306640625,-28.470703125
106.02734375,-27.150390625
107.0078125,-25.7099609375
108.701171875,-24.546630859375
110.73828125,-23.998779296875
112.6650390625,-24.1435546875
114.0693359375,-24.7548828125
114.7265625,-25.432861328125
114.705078125,-25.81787109375
114.314453125,-25.7900390625
113.9619140625,-25.58447265625
113.9775390625,-25.716796875
114.51953125,-26.698974609375
115.564453125,-28.706298828125
116.904296875,-31.347900390625
118.1845703125,-33.76318359375
118.966796875,-34.997802734375
118.8291015625,-34.50244140625
117.5185546875,-32.417724609375
115.080078125,-29.473388671875
111.939453125,-26.566650390625
108.8203125,-24.326416015625
106.5205078125,-22.91455078125
105.59375,-22.1484375
106.1025390625,-21.802734375
107.5810546875,-21.850341796875
109.1767578125,-22.500244140625
109.880859375,-24.02197265625
108.69921875,-26.537109375
104.806640625,-29.9111328125
97.6923828125,-33.801025390625
87.3369140625,-37.79541015625
74.3251953125,-41.566162109375
59.8212890625,-44.9921875
45.287109375,-48.2109375
32.0673828125,-51.57861328125
20.974609375,-55.574462890625
12.1337890625,-60.659912109375
5.142578125,-67.12744140625
-0.5615234375,-74.9677734375
-5.3173828125,-83.8056640625
-9.0771484375,-92.945556640625
-11.482421875,-101.53759765625
-12.1591796875,-108.7822265625
-11.04296875,-114.127685546875
-8.5673828125,-117.421142578125
-5.603515625,-118.971435546875
-3.16015625,-119.446044921875
-2,-119.599853515625
-2.3662109375,-119.969482421875
-3.9365234375,-120.710693359375
-6.0244140625,-121.682861328125
-7.8984375,-122.67041015625
-9.0986328125,-123.64453125
-9.5693359375,-124.8564453125
-9.576171875,-126.72119140625
-9.4873046875,-129.5556640625
-9.591796875,-133.29736328125
-10,-137.432861328125
-10.6611328125,-141.17138671875
-11.439453125,-143.806884765625
-12.2333984375,-145.058349609375
-13.046875,-145.18017578125
-14.0009765625,-144.809814453125
-15.2177734375,-144.646728515625
-16.634765625,-145.154052734375
-17.9228515625,-146.4248046875
-18.6240234375,-148.225830078125
-18.462890625,-150.15966796875
-17.62109375,-151.8583984375
-16.76953125,-153.09375
-16.7880859375,-153.794921875
-18.31640625,-153.972412109375
-21.3662109375,-153.6533203125
-25.2236328125,-152.859130859375
-28.7587890625,-151.69287109375
-30.919921875,-150.4287109375
-31.189453125,-149.568115234375
-29.724609375,-149.73876953125
-27.228515625,-151.428955078125
-24.6318359375,-154.6787109375
-22.7470703125,-158.94580078125
-21.97265625,-163.273193359375
-22.150390625,-166.716552734375
-22.6416015625,-168.76416015625
-22.615234375,-169.510009765625
-21.46484375,-169.469482421875
-19.140625,-169.226318359375
-16.1923828125,-169.101318359375
-13.498046875,-169.058837890625
-11.8017578125,-168.85302734375
-11.384765625,-168.30322265625
-12.0419921875,-167.52490234375
-13.337890625,-167.008544921875
-14.9326171875,-167.46142578125
-16.71875,-169.480712890625
-18.7314453125,-173.22021484375
-20.9287109375,-178.185791015625
-23.0751953125,-183.329833984375
-24.77734375,-187.3759765625
-25.703125,-189.307373046875
-25.765625,-188.7822265625
-25.20703125,-186.2919921875
-24.4619140625,-182.976806640625
-23.9140625,-180.167236328125
-23.6806640625,-178.84765625
-23.5673828125,-179.3115234375
-23.2216796875,-181.135009765625
-22.4033203125,-183.448974609375
-21.181640625,-185.316650390625
-19.8935546875,-186.08984375
-18.908203125,-185.603515625
-18.3525390625,-184.153076171875
-18.0068359375,-182.291748046875
-17.4453125,-180.544677734375
-16.3369140625,-179.20068359375
-14.71875,-178.25341796875
-13.0390625,-177.476318359375
-11.9326171875,-176.57275390625
-11.865234375,-175.31005859375
-12.8525390625,-173.657470703125
-14.3916015625,-171.820556640625
-15.673828125,-170.138916015625
-15.9462890625,-168.8896484375
-14.8837890625,-168.112060546875
-12.779296875,-167.5849609375
-10.4345703125,-166.942626953125
-8.7802734375,-165.83935546875
-8.435546875,-164.079833984375
-9.4375,-161.709716796875
-11.2998046875,-159.03955078125
-13.306640625,-156.63037109375
-14.84375,-155.125732421875
-15.5615234375,-155.023193359375
-15.369140625,-156.42724609375
-14.3193359375,-158.96875
-12.5546875,-161.917724609375
-10.298828125,-164.4765625
-7.8740234375,-166.082763671875
-5.6435546875,-166.594970703125
-3.8994140625,-166.2666015625
-2.759765625,-165.560302734375
-2.166015625,-164.927734375
-1.9716796875,-164.638671875
-2.08203125,-164.7265625
-2.5390625,-165.026611328125
-3.517578125,-165.26025390625
-5.1982421875,-165.181396484375
-7.6171875,-164.70703125
-10.6220703125,-163.97216796875
-13.91015625,-163.219482421875
-17.103515625,-162.63427734375
-19.8447265625,-162.203369140625
-21.8671875,-161.728759765625
-23.037109375,-160.957763671875
-23.3681640625,-159.796142578125
-22.9658203125,-158.46826171875
-22.0244140625,-157.5068359375
-20.865234375,-157.522705078125
-19.916015625,-158.848388671875
-19.6103515625,-161.27734375
-20.138671875,-164.070556640625
-21.275390625,-166.255615234375
-22.3955078125,-167.08544921875
-22.7822265625,-166.42724609375
-22.0087890625,-164.8603515625
-20.236328125,-163.4033203125
-18.2099609375,-162.997314453125
-16.9189453125,-164.026123046875
-17.0986328125,-166.1123046875
-18.8037109375,-168.3134765625
-21.369140625,-169.606689453125
-23.7373046875,-169.412109375
-24.986328125,-167.890380859375
-24.7294921875,-165.87744140625
-23.205078125,-164.506103515625
-21.06640625,-164.682373046875
-18.9931640625,-166.659423828125
-17.3369140625,-169.936279296875
-15.953125,-173.5087890625
-14.365234375,-176.338623046875
-12.1533203125,-177.74853515625
-9.3759765625,-177.57470703125
-6.6953125,-176.07763671875
-5.123046875,-173.7646484375
-5.5,-171.236572265625
-7.994140625,-169.0419921875
-11.931640625,-167.504150390625
-16.0458984375,-166.592529296875
-19.0224609375,-165.94482421875
-20.0654296875,-165.095947265625
-19.171875,-163.827392578125
-17.0322265625,-162.377197265625
-14.6591796875,-161.3720703125
-12.951171875,-161.439208984375
-12.3701171875,-162.747314453125
-12.873046875,-164.782958984375
-14.044921875,-166.5654296875
-15.32421875,-167.2041015625
-16.2294921875,-166.419189453125
-16.52734375,-164.755126953125
-16.2783203125,-163.31201171875
-15.78125,-163.175537109375
-15.388671875,-164.87109375
-15.3251953125,-168.105712890625
-15.529296875,-171.9267578125
-15.6943359375,-175.138916015625
-15.4326171875,-176.803466796875
-14.525390625,-176.595947265625
-13.072265625,-174.91455078125
-11.435546875,-172.683837890625
-10.0341796875,-170.93505859375
-9.0947265625,-170.336181640625
-8.546875,-170.93212890625
-8.08984375,-172.229736328125
-7.3857421875,-173.558837890625
-6.2021484375,-174.464599609375
-4.4912109375,-174.898193359375
-2.37109375,-175.09765625
-0.0888671875,-175.289306640625
1.986328125,-175.4306640625
3.4375,-175.16455078125
3.9111328125,-174.00390625
3.296875,-171.600341796875
1.861328125,-167.97412109375
0.1982421875,-163.574951171875
-1.0283203125,-159.191162109375
-1.423828125,-155.6962890625
-1.0751953125,-153.76171875
-0.51953125,-153.612548828125
-0.462890625,-154.944091796875
-1.390625,-157.05810546875
-3.2890625,-159.157470703125
-5.615234375,-160.694580078125
-7.548828125,-161.58056640625
-8.392578125,-162.11962890625
-7.8837890625,-162.738037109375
-6.26171875,-163.669189453125
-4.0869140625,-164.82861328125
-1.94921875,-165.896484375
-0.23046875,-166.514892578125
0.9619140625,-166.491455078125
1.7421875,-165.883544921875
2.2900390625,-164.95068359375
2.72265625,-163.99853515625
3.0224609375,-163.2109375
3.0244140625,-162.5576171875
2.513671875,-161.845458984375
1.34765625,-160.884521484375
-0.4150390625,-159.647216796875
-2.4521484375,-158.297119140625
-4.234375,-157.076416015625
-5.1904296875,-156.14599609375
-4.95703125,-155.5126953125
-3.5810546875,-155.064453125
-1.5693359375,-154.6494140625
0.28125,-154.13232421875
1.2197265625,-153.385986328125
0.875,-152.28369140625
-0.580078125,-150.723876953125
-2.5302734375,-148.704833984375
-4.2431640625,-146.417236328125
-5.2197265625,-144.286865234375
-5.404296875,-142.911376953125
-5.1201171875,-142.82568359375
-4.791015625,-144.185791015625
-4.6845703125,-146.530029296875
-4.76953125,-148.85107421875
-4.796875,-150.01318359375
-4.5,-149.317138671875
-3.794921875,-146.89892578125
-2.8515625,-143.695556640625
-2.0380859375,-140.955078125
-1.767578125,-139.571533203125
-2.34765625,-139.60791015625
-3.8857421875,-140.264892578125
-6.2568359375,-140.318359375
-9.138671875,-138.755859375
-12.087890625,-135.28369140625
-14.6484375,-130.496337890625
-16.45703125,-125.64794921875
-17.3203125,-122.172119140625
-17.2451171875,-121.128173828125
-16.4169921875,-122.808837890625
-15.162109375,-126.63818359375
-13.86328125,-131.40380859375
-12.8603515625,-135.71826171875
-12.330078125,-138.50732421875
-12.232421875,-139.33251953125
-12.3046875,-138.433349609375
-12.1640625,-136.52294921875
-11.455078125,-134.4873046875
-10.0419921875,-133.076416015625
-8.119140625,-132.705810546875
-6.189453125,-133.371337890625
-4.8505859375,-134.71826171875
-4.5185546875,-136.2294921875
-5.203125,-137.450927734375
-6.474609375,-138.14697265625
-7.6328125,-138.329345703125
-7.9990234375,-138.143798828125
-7.1611328125,-137.72705078125
-5.1171875,-137.12548828125
-2.2705078125,-136.311279296875
0.6630859375,-135.252685546875
2.8037109375,-133.947998046875
3.302734375,-132.416015625
1.65234375,-130.6259765625
-1.9189453125,-128.455322265625
-6.14453125,-125.650390625
-8.853515625,-121.801513671875
-7.6953125,-116.350830078125
-1.17578125,-108.64501953125
10.5634765625,-98.0419921875
25.697265625,-84.08544921875
41.490234375,-66.711669921875
55.5224609375,-46.436279296875
66.7197265625,-24.410400390625
75.626953125,-2.26904296875
83.8251953125,18.26318359375
92.865234375,35.8134765625
103.3857421875,49.683837890625
114.8134765625,59.862060546875
125.69140625,66.7568359375
134.3515625,70.7998046875
139.623046875,72.175048828125
141.2861328125,70.83349609375
140.1494140625,66.768798828125
137.720703125,60.347412109375
135.6171875,52.451416015625
134.96484375,44.28564453125
136.0810546875,36.97412109375
138.529296875,31.19189453125
141.462890625,27.01416015625
144.0244140625,24.056396484375
145.6328125,21.77880859375
146.1162109375,19.81298828125
145.7001953125,18.10791015625
144.8740234375,16.843505859375
144.1669921875,16.172607421875
143.931640625,15.981201171875
144.171875,15.8427734375
144.5244140625,15.1953125
144.412109375,13.63232421875
143.318359375,11.134033203125
141.046875,8.095458984375
137.892578125,5.136474609375
134.55859375,2.79638671875
131.939453125,1.30712890625
130.8251953125,0.5654296875
131.640625,0.290771484375
134.30859375,0.24609375
138.2509765625,0.33984375
142.49609375,0.5498046875
145.9794921875,0.7646484375
147.892578125,0.68017578125
147.9873046875,-0.148193359375
146.677734375,-2.128662109375
144.8623046875,-5.395751953125
143.529296875,-9.677001953125
143.37109375,-14.302978515625
144.5322265625,-18.403076171875
146.62109375,-21.1923828125
148.9189453125,-22.25634765625
150.6708984375,-21.695556640625
151.333984375,-20.0927734375
150.6845703125,-18.30859375
148.833984375,-17.19140625
146.138671875,-17.271484375
143.1142578125,-18.5771484375
140.30078125,-20.60791015625
138.1376953125,-22.549560546875
136.85546875,-23.637939453125
136.3935546875,-23.499755859375
136.435546875,-22.31982421875
136.501953125,-20.718505859375
136.13671875,-19.402587890625
135.0849609375,-18.813720703125
133.4150390625,-18.951416015625
131.5166015625,-19.482177734375
129.9453125,-20.03076171875
129.1513671875,-20.421142578125
129.224609375,-20.723876953125
129.810546875,-21.075927734375
130.2587890625,-21.463134765625
129.9677734375,-21.63623046875
128.697265625,-21.24462890625
126.708984375,-20.0732421875
124.60546875,-18.212646484375
123.046875,-16.04833984375
122.4296875,-14.103759765625
122.736328125,-12.827880859375
123.5830078125,-12.4658203125
124.396484375,-13.0302734375
124.6650390625,-14.363525390625
124.1494140625,-16.228759765625
122.9697265625,-18.3857421875
121.5419921875,-20.612060546875
120.3603515625,-22.7119140625
119.759765625,-24.49853515625
119.7119140625,-25.804443359375
119.83984375,-26.51123046875
119.6298828125,-26.58154296875
118.72265625,-26.11669921875
117.1220703125,-25.37060546875
115.177734375,-24.70263671875
113.359375,-24.432861328125
111.9912109375,-24.6796875
111.0888671875,-25.276611328125
110.40625,-25.856201171875
109.615234375,-26.03759765625
108.515625,-25.632080078125
107.0986328125,-24.7314453125
105.48828125,-23.66748046875
103.8037109375,-22.84912109375
102.0947265625,-22.564208984375
100.4072265625,-22.834228515625
98.880859375,-23.432861328125
97.7646484375,-23.989501953125
97.3046875,-24.1396484375
97.59375,-23.638427734375
98.494140625,-22.433837890625
99.7158203125,-20.697021484375
100.93359375,-18.771728515625
101.912109375,-17.06396484375
102.5458984375,-15.8896484375
102.8359375,-15.373291015625
102.8056640625,-15.428955078125
102.4775390625,-15.845458984375
101.8408203125,-16.416748046875
100.892578125,-17.1083984375
99.6904296875,-18.134765625
98.41796875,-19.89892578125
97.3837890625,-22.70849609375
96.9404296875,-26.456787109375
97.3173828125,-30.431396484375
98.4794921875,-33.464599609375
100.08984375,-34.3759765625
101.65625,-32.54736328125
102.759765625,-28.339111328125
103.2734375,-23.07763671875
103.40234375,-18.574462890625
103.583984375,-16.364501953125
104.263671875,-17.045166015625
105.6982421875,-20.064697265625
107.8408203125,-24.043701171875
110.36328125,-27.441162109375
112.7607421875,-29.245849609375
114.5009765625,-29.40234375
115.1669921875,-28.74951171875
114.578125,-28.51220703125
112.87890625,-29.557373046875
110.533203125,-31.86572265625
108.2177734375,-34.511474609375
106.62109375,-36.216796875
106.234375,-36.1298828125
107.18359375,-34.357666015625
109.146484375,-31.885498046875
111.431640625,-29.9873046875
113.22265625,-29.474609375
113.921875,-30.294189453125
113.392578125,-31.639404296875
111.9677734375,-32.476806640625
110.2724609375,-32.141357421875
108.9296875,-30.670654296875
108.34765625,-28.768310546875
108.591796875,-27.411376953125
109.435546875,-27.366455078125
110.4951171875,-28.8046875
111.4375,-31.212158203125
112.1455078125,-33.607421875
112.787109375,-34.974365234375
113.7275390625,-34.724365234375
115.259765625,-32.950439453125
117.375,-30.35498046875
119.6826171875,-27.881103515625
121.5986328125,-26.2978515625
122.6982421875,-25.984375
122.986328125,-26.9228515625
122.927734375,-28.793701171875
123.173828125,-31.051025390625
124.1748046875,-33.01904296875
125.91796875,-34.061767578125
127.958984375,-33.856201171875
129.7060546875,-32.580322265625
130.73828125,-30.90478515625
130.962890625,-29.72021484375
130.55859375,-29.7177734375
129.7763671875,-31.04150390625
128.7744140625,-33.206298828125
127.5693359375,-35.321533203125
126.1337890625,-36.515380859375
124.5546875,-36.32666015625
123.10546875,-34.88671875
122.1748046875,-32.8369140625
122.076171875,-31.043701171875
122.869140625,-30.20654296875
124.28125,-30.5390625
125.794921875,-31.65966796875
126.8359375,-32.80419921875
127.0078125,-33.23388671875
126.2548828125,-32.65771484375
124.8857421875,-31.374267578125
123.4443359375,-30.07861328125
122.4423828125,-29.43212890625
122.0986328125,-29.673095703125
122.1767578125,-30.454345703125
122.0888671875,-31.02734375
121.1943359375,-30.636474609375
119.1845703125,-28.935546875
116.314453125,-26.187744140625
113.3544921875,-23.193115234375
111.2822265625,-20.96923828125
110.8525390625,-20.341796875
112.279296875,-21.603759765625
115.154296875,-24.3603515625
118.6015625,-27.671142578125
121.619140625,-30.431640625
123.447265625,-31.82275390625
123.873046875,-31.621826171875
123.2998046875,-30.232421875
122.5390625,-28.437255859375
122.37890625,-27.019287109375
123.1572265625,-26.46875
124.5634765625,-26.84375
125.8037109375,-27.820068359375
126.0810546875,-28.833251953125
125.044921875,-29.287841796875
122.984375,-28.759521484375
120.61328125,-27.159912109375
118.6318359375,-24.76904296875
117.375,-22.12060546875
116.7041015625,-19.771728515625
116.1865234375,-18.072021484375
115.4169921875,-17.077392578125
114.2880859375,-16.6435546875
113.06640625,-16.61083984375
112.2392578125,-16.9140625
112.220703125,-17.4853515625
113.1162109375,-18.0927734375
114.6513671875,-18.272705078125
116.302734375,-17.507080078125
117.521484375,-15.565673828125
117.958984375,-12.7431640625
117.568359375,-9.828125
116.5380859375,-7.721435546875
115.1484375,-6.96240234375
113.650390625,-7.44970703125
112.255859375,-8.543701171875
111.2236328125,-9.45263671875
110.8603515625,-9.663330078125
111.41015625,-9.10888671875
112.841796875,-7.994140625
114.7041015625,-6.402587890625
116.2041015625,-4.055419921875
116.5234375,-0.49365234375
115.21484375,4.48291015625
112.478515625,10.570556640625
109.1298828125,17.265380859375
106.25390625,24.557861328125
104.689453125,33.431396484375
104.6474609375,45.605712890625
105.6640625,62.59912109375
106.9033203125,84.74658203125
107.6337890625,110.870361328125
107.6279296875,138.82080078125
107.2919921875,166.536376953125
107.4296875,192.992431640625
108.734375,218.484619140625
111.3212890625,244.15185546875
114.58203125,271.046875
117.50390625,299.272216796875
119.224609375,327.5810546875
119.48828125,353.552490234375
118.7333984375,374.3017578125
117.7734375,387.53076171875
117.2919921875,392.572509765625
117.458984375,390.95947265625
117.8798828125,386.03662109375
117.8935546875,381.706298828125
116.9912109375,380.822021484375
115.130859375,384.076904296875
112.744140625,389.88916015625
110.5009765625,395.241455078125
108.9794921875,397.016845703125
108.4189453125,393.213623046875
108.6474609375,383.65087890625
109.2236328125,369.9521484375
109.67578125,354.89892578125
109.734375,341.328369140625
109.376953125,331.011474609375
108.73046875,324.033447265625
107.923828125,318.96044921875
106.9970703125,313.68994140625
105.8984375,306.479736328125
104.5654296875,296.649658203125
103.0283203125,284.66552734375
101.474609375,271.664306640625
100.2119140625,258.80908203125
99.5263671875,246.76953125
99.4599609375,235.600341796875
99.6591796875,224.90625
99.40234375,214.123779296875
97.9033203125,202.732177734375
94.705078125,190.356201171875
89.9873046875,176.87353515625
84.5751953125,162.522705078125
79.6396484375,147.9296875
76.236328125,133.953369140625
74.9111328125,121.322021484375
75.5771484375,110.276611328125
77.6611328125,100.46337890625
80.3740234375,91.176513671875
82.9384765625,81.837646484375
84.72265625,72.412841796875
85.3603515625,63.50341796875
84.8681640625,56.0390625
83.6650390625,50.7548828125
82.375,47.726806640625
81.51171875,46.212890625
81.2197265625,44.9013671875
81.2578125,42.408447265625
81.23046875,37.83203125
80.89453125,31.163330078125
80.359375,23.38916015625
80.048828125,16.180419921875
80.4541015625,11.23486328125
81.8251953125,9.52197265625
83.986328125,10.819091796875
86.400390625,13.75732421875
88.39453125,16.408935546875
89.435546875,17.12353515625
89.3310546875,15.2177734375
88.2529296875,11.169677734375
86.630859375,6.279052734375
85.0029296875,2.0166015625
83.828125,-0.5703125
83.3623046875,-1.17041015625
83.60546875,-0.2041015625
84.3623046875,1.44189453125
85.3515625,2.814697265625
86.3330078125,3.287841796875
87.1611328125,2.771728515625
87.8046875,1.638427734375
88.3505859375,0.399658203125
88.9443359375,-0.639404296875
89.73828125,-1.51806640625
90.8232421875,-2.467041015625
92.2275390625,-3.611328125
93.958984375,-4.81787109375
96.052734375,-5.81103515625
98.5419921875,-6.483642578125
101.349609375,-7.097900390625
104.1640625,-8.175537109375
106.4189453125,-10.112060546875
107.4609375,-12.77587890625
106.876953125,-15.400634765625
104.7841796875,-16.887451171875
101.9287109375,-16.347900390625
99.4560546875,-13.578369140625
98.4580078125,-9.204833984375
99.515625,-4.475341796875
102.4423828125,-0.80029296875
106.35546875,0.758056640625
110.01953125,-0.1044921875
112.3037109375,-2.75830078125
112.556640625,-5.82373046875
110.7998046875,-7.76171875
107.6796875,-7.633056640625
104.2041015625,-5.639404296875
101.353515625,-3.02587890625
99.6650390625,-1.36767578125
99.0361328125,-1.6796875
98.8310546875,-3.915771484375
98.2509765625,-7.130859375
96.7841796875,-10.094970703125
94.46875,-11.924560546875
91.865234375,-12.386962890625
89.7548828125,-11.836181640625
88.71484375,-10.94189453125
88.8583984375,-10.384521484375
89.833984375,-10.625732421875
91.1015625,-11.771484375
92.2470703125,-13.51416015625
93.130859375,-15.202880859375
93.8310546875,-16.11083984375
94.482421875,-15.82666015625
95.1484375,-14.546875
95.8046875,-13.064453125
96.3955078125,-12.368408203125
96.90625,-13.068359375
97.4072265625,-14.979248046875
98.005859375,-17.15283203125
98.7626953125,-18.352783203125
99.6103515625,-17.72607421875
100.353515625,-15.292236328125
100.79296875,-12.012451171875
100.8994140625,-9.357421875
100.9306640625,-8.57568359375
101.3955078125,-10.031494140625
102.8154296875,-12.995361328125
105.4169921875,-16.010009765625
108.9013671875,-17.645263671875
112.541015625,-17.185791015625
115.5126953125,-14.91748046875
117.33203125,-11.893798828125
118.0244140625,-9.361572265625
117.958984375,-8.19384765625
117.48828125,-8.611572265625
116.716796875,-10.281494140625
115.5478515625,-12.63671875
113.95703125,-15.177490234375
112.224609375,-17.61328125
110.888671875,-19.8642578125
110.4404296875,-22.014892578125
110.9931640625,-24.248291015625
112.1875,-26.762451171875
113.4228515625,-29.674560546875
114.22265625,-32.900146484375
114.4599609375,-36.092041015625
114.326171875,-38.653564453125
114.1015625,-39.905029296875
113.9140625,-39.36572265625
113.6484375,-37.0390625
113.0625,-33.561767578125
112.0029296875,-30.079345703125
110.5703125,-27.859375
109.099609375,-27.762451171875
108.0126953125,-29.851318359375
107.5927734375,-33.30712890625
107.853515625,-36.760009765625
108.5576171875,-38.872802734375
109.375,-38.919189453125
110.083984375,-37.107421875
110.6533203125,-34.456787109375
111.1787109375,-32.300048828125
111.7412109375,-31.620849609375
112.28125,-32.58984375
112.611328125,-34.51611328125
112.5361328125,-36.22802734375
111.974609375,-36.68017578125
111.009765625,-35.492919921875
109.8232421875,-33.177978515625
108.609375,-30.90380859375
107.552734375,-29.9140625
106.8291015625,-30.88330078125
106.6337890625,-33.56494140625
107.1669921875,-36.957763671875
108.548828125,-39.85791015625
110.7255859375,-41.4677734375
113.4267578125,-41.69921875
116.2041015625,-41.05224609375
118.525390625,-40.227783203125
119.9248046875,-39.7822265625
120.150390625,-39.99658203125
119.298828125,-40.9462890625
117.833984375,-42.62109375
116.474609375,-44.91943359375
115.908203125,-47.58349609375
116.45703125,-50.16064453125
117.8798828125,-52.13916015625
119.41796875,-53.210693359375
120.1328125,-53.4951171875
119.396484375,-53.5146484375
117.2529296875,-53.916259765625
114.4365234375,-55.1181640625
112.03515625,-57.108642578125
110.9541015625,-59.484619140625
111.4453125,-61.62353515625
112.986328125,-62.908203125
114.5185546875,-62.93310546875
114.9755859375,-61.672119140625
113.7880859375,-59.5185546875
111.1162109375,-57.161376953125
107.7216796875,-55.345458984375
104.5703125,-54.579345703125
102.3828125,-54.93701171875
101.3583984375,-56.01708984375
101.2294921875,-57.1376953125
101.4873046875,-57.639892578125
101.7099609375,-57.1943359375
101.720703125,-55.953369140625
101.5732421875,-54.519287109375
101.41015625,-53.7099609375
101.310546875,-54.169921875
101.259765625,-56.00146484375
101.212890625,-58.621337890625
101.208984375,-60.994140625
101.4130859375,-62.138916015625
102.0615234375,-61.644287109375
103.328125,-59.85400390625
105.23046875,-57.64306640625
107.60546875,-55.921630859375
110.1416015625,-55.164306640625
112.4541015625,-55.222412109375
114.1572265625,-55.45556640625
114.9609375,-55.0712890625
114.7578125,-53.49267578125
113.6640625,-50.595703125
111.9755859375,-46.734375
110.0419921875,-42.59130859375
108.150390625,-38.904296875
106.4609375,-36.18505859375
105.05078125,-34.567626953125
103.9873046875,-33.903076171875
103.3828125,-34.024658203125
103.3662109375,-34.930419921875
103.96484375,-36.677001953125
104.990234375,-39.065673828125
106.0419921875,-41.41748046875
106.677734375,-42.734619140625
106.6298828125,-42.208251953125
105.9736328125,-39.71728515625
105.068359375,-35.986328125
104.37109375,-32.23291015625
104.23828125,-29.53662109375
104.798828125,-28.2958984375
105.9580078125,-28.128173828125
107.5029296875,-28.210205078125
109.224609375,-27.846923828125
110.9423828125,-26.9033203125
112.4755859375,-25.8349609375
113.5791015625,-25.36669921875
113.9677734375,-26.02734375
113.4521484375,-27.840576171875
112.076171875,-30.314453125
110.158203125,-32.699951171875
108.1796875,-34.341064453125
106.58984375,-34.939208984375
105.6513671875,-34.658203125
105.384765625,-34.00390625
105.625,-33.59521484375
106.1162109375,-33.87890625
106.5888671875,-34.901123046875
106.80078125,-36.2255859375
106.5634765625,-37.069580078125
105.7900390625,-36.65283203125
104.572265625,-34.603271484375
103.2021484375,-31.2119140625
102.107421875,-27.37939453125
101.6640625,-24.281005859375
102.025390625,-22.939697265625
103.025390625,-23.88623046875
104.23828125,-26.996337890625
105.123046875,-31.502685546875
105.23046875,-36.16845703125
104.359375,-39.611328125
102.6572265625,-40.778564453125
100.5947265625,-39.396728515625
98.8330078125,-36.1982421875
97.978515625,-32.7060546875
98.337890625,-30.560302734375
99.7197265625,-30.722900390625
101.47265625,-33.010009765625
102.7734375,-36.265625
103.044921875,-39.05029296875
102.251953125,-40.42529296875
100.8857421875,-40.3291015625
99.677734375,-39.406982421875
99.20703125,-38.505859375
99.6708984375,-38.194580078125
100.8994140625,-38.54052734375
102.5458984375,-39.208251953125
104.26953125,-39.703125
105.8291015625,-39.617431640625
107.060546875,-38.719970703125
107.85546875,-36.90576171875
108.142578125,-34.1064453125
107.9072265625,-30.294189453125
107.236328125,-25.603271484375
106.3076171875,-20.435302734375
105.328125,-15.412109375
104.435546875,-11.192138671875
103.646484375,-8.242919921875
102.8984375,-6.717041015625
102.146484375,-6.4609375
101.4521484375,-7.100830078125
100.994140625,-8.177734375
101.0126953125,-9.295654296875
101.6953125,-10.223876953125
103.0390625,-10.91845703125
104.8115234375,-11.45849609375
106.6484375,-11.958984375
108.275390625,-12.50634765625
109.677734375,-13.148681640625
111.091796875,-13.8935546875
112.7919921875,-14.729736328125
114.822265625,-15.6396484375
116.849609375,-16.59912109375
118.2578125,-17.539306640625
118.396484375,-18.283203125
116.8837890625,-18.557373046875
113.8046875,-18.109375
109.7431640625,-16.9267578125
105.623046875,-15.403564453125
102.3818359375,-14.304931640625
100.62109375,-14.501953125
100.337890625,-16.557861328125
100.9296875,-20.367919921875
101.4716796875,-25.05908203125
101.14453125,-29.234130859375
99.6416015625,-31.529296875
97.32421875,-31.219482421875
95.0068359375,-28.58984375
93.5,-24.84130859375
93.1865234375,-21.5546875
93.8251953125,-19.983154296875
94.755859375,-20.54052734375
95.2861328125,-22.73095703125
95.0556640625,-25.501220703125
94.154296875,-27.8203125
92.998046875,-29.1513671875
92.0771484375,-29.602294921875
91.7470703125,-29.679443359375
92.1083984375,-29.841064453125
93.0126953125,-30.144775390625
94.123046875,-30.239501953125
95.0263671875,-29.67578125
95.36328125,-28.30126953125
94.939453125,-26.456298828125
93.828125,-24.8173828125
92.384765625,-23.9775390625
91.1328125,-24.02880859375
90.5693359375,-24.45556640625
90.9873046875,-24.443115234375
92.3818359375,-23.40625
94.48828125,-21.384033203125
96.845703125,-19.014892578125
98.8935546875,-17.1044921875
100.0791015625,-16.1044921875
99.99609375,-15.88720703125
98.5068359375,-15.96337890625
95.8330078125,-15.955322265625
92.541015625,-15.959228515625
89.4111328125,-16.516357421875
87.1875,-18.19140625
86.3154296875,-21.096923828125
86.8037109375,-24.65576171875
88.2607421875,-27.81103515625
90.0712890625,-29.548828125
91.6337890625,-29.4599609375
92.5390625,-27.99365234375
92.6845703125,-26.262451171875
92.2412109375,-25.50927734375
91.4970703125,-26.517333984375
90.6650390625,-29.291748046875
89.77734375,-33.11328125
88.6826171875,-36.922119140625
87.193359375,-39.7802734375
85.236328125,-41.18505859375
82.9521484375,-41.14013671875
80.654296875,-40.0146484375
78.712890625,-38.34130859375
77.39453125,-36.639404296875
76.791015625,-35.310791015625
76.8232421875,-34.5673828125
77.32421875,-34.396240234375
78.080078125,-34.581298828125
78.8291015625,-34.79931640625
79.2509765625,-34.7900390625
79.00390625,-34.5009765625
77.8310546875,-34.099365234375
75.6982421875,-33.804931640625
72.853515625,-33.692626953125
69.75,-33.591064453125
66.880859375,-33.210205078125
64.5654296875,-32.404541015625
62.8310546875,-31.363525390625
61.4658203125,-30.577880859375
60.228515625,-30.557373046875
59.0556640625,-31.494384765625
58.115234375,-33.1376953125
57.6572265625,-34.961669921875
57.794921875,-36.5390625
58.384765625,-37.832275390625
59.0732421875,-39.184326171875
59.4921875,-41.02685546875
59.4873046875,-43.53564453125
59.2294921875,-46.48193359375
59.0859375,-49.368408203125
59.3779296875,-51.666259765625
60.1513671875,-53.013427734375
61.1142578125,-53.2763671875
61.7939453125,-52.560791015625
61.80859375,-51.19921875
61.091796875,-49.7158203125
59.986328125,-48.689697265625
59.12890625,-48.50927734375
59.1943359375,-49.121337890625
60.583984375,-49.958740234375
63.2216796875,-50.190185546875
66.53125,-49.15966796875
69.6591796875,-46.801025390625
71.83203125,-43.730224609375
72.716796875,-40.9619140625
72.5673828125,-39.345458984375
72.0791015625,-39.083251953125
72.0361328125,-39.6015625
72.9248046875,-39.86083984375
74.73828125,-38.936279296875
77.025390625,-36.54150390625
79.162109375,-33.203369140625
80.646484375,-29.993896484375
81.2978515625,-27.92626953125
81.2529296875,-27.3583984375
80.8486328125,-27.752685546875
80.4833984375,-27.96533203125
80.494140625,-26.8798828125
81.0380859375,-24.029052734375
82.0009765625,-19.844482421875
83.0146484375,-15.47119140625
83.5654296875,-12.19580078125
83.234375,-10.7724609375
81.873046875,-11.015625
79.658203125,-11.91015625
76.994140625,-12.197265625
74.3427734375,-11.12060546875
72.064453125,-8.835205078125
70.3681640625,-6.276611328125
69.3017578125,-4.572509765625
68.787109375,-4.43701171875
68.6630859375,-5.8798828125
68.716796875,-8.314453125
68.74609375,-10.927734375
68.6201171875,-13.12255859375
68.3076171875,-14.763671875
67.8291015625,-16.135498046875
67.1826171875,-17.65478515625
66.3408203125,-19.546875
65.3359375,-21.70263671875
64.3720703125,-23.750244140625
63.830078125,-25.275146484375
64.12890625,-26.00830078125
65.533203125,-25.95068359375
67.9736328125,-25.404052734375
71.068359375,-24.882080078125
74.2841796875,-24.876708984375
77.16015625,-25.6025390625
79.458984375,-26.88134765625
81.158203125,-28.24658203125
82.302734375,-29.223388671875
82.90625,-29.6064453125
82.9248046875,-29.5927734375
82.3603515625,-29.674560546875
81.318359375,-30.31787109375
79.9716796875,-31.57568359375
78.470703125,-32.910888671875
76.8564453125,-33.422119140625
75.0712890625,-32.39013671875
73.0615234375,-29.830322265625
70.8955078125,-26.609130859375
68.78125,-24.0634765625
66.9912109375,-23.34228515625
65.7119140625,-24.874267578125
64.9794921875,-28.222412109375
64.740234375,-32.32421875
64.9677734375,-35.96240234375
65.728515625,-38.24560546875
67.103515625,-38.897705078125
69.0341796875,-38.272705078125
71.2451171875,-37.111328125
73.2978515625,-36.167724609375
74.7314453125,-35.943359375
75.12890625,-36.589111328125
74.126953125,-37.978759765625
71.3779296875,-39.8564453125
66.6240234375,-41.943603515625
59.8466796875,-44.00390625
51.4169921875,-45.864501953125
42.11328125,-47.408447265625
32.9775390625,-48.578857421875
25.083984375,-49.389404296875
19.2783203125,-49.916748046875
16.0087890625,-50.278076171875
15.2333984375,-50.60302734375
16.462890625,-51.02392578125
18.8642578125,-51.67041015625
21.427734375,-52.600830078125
23.220703125,-53.754638671875
23.6796875,-54.978271484375
22.833984375,-56.14892578125
21.267578125,-57.272216796875
19.822265625,-58.453125
19.1396484375,-59.73828125
19.34765625,-60.995849609375
20.0224609375,-61.944091796875
20.4677734375,-62.298828125
20.12109375,-61.91259765625
18.8642578125,-60.8037109375
17.0703125,-59.09765625
15.3798828125,-56.95166015625
14.375,-54.564697265625
14.345703125,-52.219482421875
15.2314453125,-50.31787109375
16.73046875,-49.274658203125
18.443359375,-49.312744140625
19.9990234375,-50.277099609375
21.1279296875,-51.64599609375
21.7021484375,-52.775146484375
21.7783203125,-53.238525390625
21.5625,-53.012939453125
21.28515625,-52.401123046875
20.978515625,-51.791015625
20.330078125,-51.443603515625
18.7880859375,-51.413330078125
15.9052734375,-51.59326171875
11.740234375,-51.831298828125
7.013671875,-52.031005859375
2.91015625,-52.203857421875
0.59765625,-52.423828125
0.697265625,-52.753662109375
2.9453125,-53.212890625
6.236328125,-53.83056640625
9.0556640625,-54.68115234375
10.12109375,-55.8359375
8.8984375,-57.242431640625
5.81640625,-58.654296875
2.033203125,-59.659423828125
-1.0693359375,-59.84375
-2.46484375,-58.966064453125
-1.865234375,-57.077392578125
0.287109375,-54.53369140625
3.1455078125,-51.886962890625
5.8955078125,-49.70849609375
8.0302734375,-48.41259765625
9.408203125,-48.125
10.115234375,-48.640625
10.2724609375,-49.5224609375
9.8984375,-50.32177734375
8.923828125,-50.853271484375
7.3359375,-51.307861328125
5.330078125,-52.11328125
3.326171875,-53.619384765625
1.82421875,-55.873291015625
1.1923828125,-58.639404296875
1.5068359375,-61.613037109375
2.54296875,-64.643310546875
3.9111328125,-67.806884765625
5.2490234375,-71.236083984375
6.3408203125,-74.864501953125
7.1240234375,-78.3076171875
7.6083984375,-81.004638671875
7.8330078125,-82.5224609375
7.865234375,-82.796875
7.873046875,-82.12890625
8.09765625,-80.96142578125
8.7685546875,-79.63134765625
9.935546875,-78.28076171875
11.3935546875,-76.986083984375
12.7578125,-75.936767578125
13.6328125,-75.46923828125
13.833984375,-75.867431640625
13.5009765625,-77.1044921875
13.0810546875,-78.760009765625
13.1689453125,-80.2138671875
14.2119140625,-80.96435546875
16.2197265625,-80.851806640625
18.62109375,-80.067626953125
20.4208984375,-78.982666015625
20.6943359375,-77.96728515625
19.1357421875,-77.272216796875
16.3291015625,-77.0185546875
13.4912109375,-77.2216796875
11.837890625,-77.788818359375
11.9248046875,-78.502197265625
13.349609375,-79.056396484375
14.9375,-79.17578125
15.345703125,-78.78955078125
13.7275390625,-78.11083984375
10.193359375,-77.546630859375
5.82421875,-77.4716796875
2.2451171875,-77.974365234375
0.8876953125,-78.767822265625
2.2685546875,-79.29931640625
5.6201171875,-79.0224609375
9.1318359375,-77.697509765625
10.767578125,-75.5478515625
9.2705078125,-73.1943359375
4.8359375,-71.366455078125
-1.0205078125,-70.572265625
-6.24609375,-70.940673828125
-9.2421875,-72.278564453125
-9.4921875,-74.23095703125
-7.59375,-76.349365234375
-4.8359375,-78.079345703125
-2.58203125,-78.74560546875
-1.7255859375,-77.713134765625
-2.3984375,-74.681640625
-4.01953125,-69.98291015625
-5.5703125,-64.58837890625
-6.01171875,-59.739990234375
-4.7080078125,-56.38671875
-1.7490234375,-54.7978515625
2.0078125,-54.6650390625
5.3037109375,-55.5546875
7.1123046875,-57.308837890625
7.1982421875,-60.042236328125
6.1943359375,-63.780029296875
5.263671875,-68.110107421875
5.51953125,-72.163818359375
7.5673828125,-74.986328125
11.294921875,-76.012451171875
15.93359375,-75.354736328125
20.322265625,-73.73486328125
23.2646484375,-72.05126953125
23.853515625,-70.81201171875
21.697265625,-69.8427734375
17.0810546875,-68.560302734375
11.0224609375,-66.660888671875
5.119140625,-64.628662109375
1.08203125,-63.57470703125
0.025390625,-64.490966796875
1.9228515625,-67.46240234375
5.5263671875,-71.39013671875
8.892578125,-74.432373046875
10.2646484375,-74.974853515625
8.8984375,-72.595703125
5.4287109375,-68.4326171875
1.564453125,-64.591064453125
-0.7822265625,-62.923095703125
-0.5029296875,-63.93896484375
2.1044921875,-66.609130859375
5.44921875,-69.07763671875
7.4521484375,-69.745361328125
6.5927734375,-68.0546875
2.6396484375,-64.654052734375
-3.2548828125,-61.0205078125
-9.125,-58.748779296875
-13.091796875,-58.807861328125
-14.140625,-61.063232421875
-12.431640625,-64.31787109375
-9.12109375,-66.881103515625
-5.7919921875,-67.457763671875
-3.7431640625,-65.88818359375
-3.4892578125,-63.295654296875
-4.6376953125,-61.44677734375
-6.2431640625,-61.674560546875
-7.396484375,-64.023193359375
-7.71484375,-67.17822265625
-7.4345703125,-69.277587890625
-7.10546875,-69.120361328125
-7.146484375,-66.96240234375
-7.603515625,-64.31787109375
-8.3173828125,-62.916748046875
-9.220703125,-63.55810546875
-10.4658203125,-65.670166015625
-12.1689453125,-67.72216796875
-13.9775390625,-68.1171875
-14.92578125,-65.99169921875
-13.755859375,-61.618408203125
-9.5576171875,-56.30712890625
-2.29296875,-51.822265625
7.1318359375,-49.504150390625
17.2666015625,-49.517333984375
26.7041015625,-50.691650390625
34.5029296875,-51.09521484375
40.3203125,-49.0947265625
44.2509765625,-44.33642578125
46.6181640625,-38.072265625
47.767578125,-32.589599609375
47.98046875,-30.030029296875
47.51953125,-31.302490234375
46.6953125,-35.689453125
45.8603515625,-41.32763671875
45.3193359375,-46.1484375
45.224609375,-48.69482421875
45.5068359375,-48.489013671875
45.884765625,-45.971923828125
45.9921875,-42.22900390625
45.58984375,-38.599365234375
44.7509765625,-36.306884765625
43.8759765625,-36.10595703125
43.470703125,-38.07177734375
43.826171875,-41.568603515625
44.8046875,-45.47412109375
45.8603515625,-48.593994140625
46.3076171875,-50.14501953125
45.7001953125,-50.06396484375
44.1123046875,-48.9521484375
42.1572265625,-47.69287109375
40.6552734375,-46.955322265625
40.1279296875,-46.883056640625
40.462890625,-47.114501953125
41.0185546875,-47.122802734375
41.0986328125,-46.68994140625
40.4716796875,-46.217041015625
39.5224609375,-46.578369140625
38.9658203125,-48.545654296875
39.33203125,-52.124267578125
40.5859375,-56.326416015625
42.185546875,-59.56884765625
43.45703125,-60.49072265625
44.0048828125,-58.713134765625
43.919921875,-55.10791015625
43.658203125,-51.389404296875
43.7705078125,-49.2275390625
44.625,-49.38525390625
46.2509765625,-51.330810546875
48.34765625,-53.599853515625
50.427734375,-54.649658203125
52.01953125,-53.699951171875
52.830078125,-51.06787109375
52.833984375,-47.87841796875
52.2744140625,-45.424560546875
51.5498046875,-44.56689453125
51.0888671875,-45.450927734375
51.1669921875,-47.61962890625
51.822265625,-50.37109375
52.869140625,-53.146484375
54.0009765625,-55.6728515625
54.935546875,-57.83544921875
55.4912109375,-59.487548828125
55.619140625,-60.40869140625
55.37109375,-60.5068359375
54.8662109375,-60.033203125
54.248046875,-59.609130859375
53.662109375,-59.924560546875
53.2421875,-61.327880859375
53.080078125,-63.554931640625
53.158203125,-65.79931640625
53.2626953125,-67.130615234375
52.9833984375,-66.99169921875
51.8779296875,-65.5302734375
49.7490234375,-63.54150390625
46.8681640625,-62.08642578125
43.94140625,-61.96875
41.7802734375,-63.3046875
40.8701171875,-65.443603515625
41.1376953125,-67.261474609375
42.10546875,-67.732177734375
43.2841796875,-66.4814453125
44.462890625,-63.994873046875
45.671875,-61.38427734375
46.8974609375,-59.803955078125
47.853515625,-59.889404296875
48.0556640625,-61.5009765625
47.1591796875,-63.8896484375
45.3076171875,-66.180419921875
43.208984375,-67.849365234375
41.8056640625,-68.90966796875
41.7587890625,-69.7255859375
43.0927734375,-70.62890625
45.2060546875,-71.624267578125
47.2119140625,-72.364501953125
48.3720703125,-72.393310546875
48.3515625,-71.512939453125
47.3037109375,-70.05126953125
45.7587890625,-68.83984375
44.4052734375,-68.8427734375
43.81640625,-70.61083984375
44.1650390625,-73.896484375
45.115234375,-77.68603515625
46.00390625,-80.666748046875
46.2744140625,-81.8701171875
45.84765625,-81.120849609375
45.16015625,-79.05224609375
44.7939453125,-76.748291015625
45.0146484375,-75.23486328125
45.5595703125,-75.08837890625
45.806640625,-76.274169921875
45.169921875,-78.22314453125
43.4677734375,-80.122314453125
41.0546875,-81.264404296875
38.673828125,-81.354736328125
37.12890625,-80.65087890625
36.96875,-79.82275390625
38.2998046875,-79.598876953125
40.78125,-80.3564453125
43.775390625,-81.92333984375
46.5595703125,-83.728515625
48.533203125,-85.1953125
49.38671875,-86.12060546875
49.1728515625,-86.764892578125
48.2509765625,-87.608154296875
47.142578125,-88.91748046875
46.357421875,-90.43359375
46.255859375,-91.425537109375
46.9765625,-91.111083984375
48.3837890625,-89.18896484375
50.0224609375,-86.112060546875
51.185546875,-82.92431640625
51.1328125,-80.7470703125
49.470703125,-80.255126953125
46.40625,-81.4013671875
42.7099609375,-83.495361328125
39.3427734375,-85.55908203125
37.0341796875,-86.763427734375
36.0341796875,-86.711181640625
36.1982421875,-85.53369140625
37.1953125,-83.803955078125
38.72265625,-82.353759765625
40.548828125,-82.0126953125
42.451171875,-83.289794921875
44.1123046875,-86.125
45.171875,-89.858642578125
45.37890625,-93.48095703125
44.771484375,-96.056640625
43.69921875,-97.068603515625
42.6357421875,-96.53857421875
41.962890625,-94.897705078125
41.7890625,-92.760009765625
41.9443359375,-90.687255859375
42.0595703125,-89.083251953125
41.7255859375,-88.189697265625
40.7119140625,-88.170166015625
39.1552734375,-89.14404296875
37.5595703125,-91.111572265625
36.5380859375,-93.849609375
36.4501953125,-96.8642578125
37.1982421875,-99.521728515625
38.2939453125,-101.277587890625
39.173828125,-101.881103515625
39.5478515625,-101.46337890625
39.5556640625,-100.484130859375
39.6552734375,-99.535400390625
40.3212890625,-99.09814453125
41.73828125,-99.372314453125
43.6865234375,-100.27490234375
45.6396484375,-101.550048828125
46.9794921875,-102.90478515625
47.2216796875,-104.0498046875
46.21875,-104.723388671875
44.298828125,-104.7548828125
42.251953125,-104.123779296875
41.0927734375,-102.95068359375
41.6337890625,-101.38671875
44.0966796875,-99.5341796875
47.943359375,-97.47705078125
52.064453125,-95.35498046875
55.1943359375,-93.407958984375
56.3828125,-91.8994140625
55.322265625,-90.9873046875
52.40234375,-90.64111328125
48.5068359375,-90.666748046875
44.6591796875,-90.8388671875
41.6552734375,-91
39.8681640625,-91.06201171875
39.18359375,-90.966064453125
39.1064453125,-90.698974609375
38.97265625,-90.400390625
38.21484375,-90.39501953125
36.611328125,-91.051025390625
34.392578125,-92.517333984375
32.1318359375,-94.521240234375
30.439453125,-96.41259765625
29.64453125,-97.474609375
29.65234375,-97.33154296875
30.078125,-96.20849609375
30.5390625,-94.8994140625
30.8994140625,-94.400390625
31.2841796875,-95.3779296875
31.908203125,-97.777099609375
32.8583984375,-100.77294921875
33.9765625,-103.09619140625
34.9599609375,-103.624267578125
35.5693359375,-101.9501953125
35.830078125,-98.677001953125
36.0244140625,-95.238525390625
36.478515625,-93.244873046875
37.2607421875,-93.74267578125
38.025390625,-96.753173828125
38.0830078125,-101.3505859375
36.7255859375,-106.136962890625
33.640625,-109.823486328125
29.21484375,-111.575927734375
24.5107421875,-111.095947265625
20.8876953125,-108.544189453125
19.3828125,-104.462890625
20.240234375,-99.68896484375
22.791015625,-95.218017578125
25.7744140625,-91.968505859375
27.92578125,-90.533447265625
28.50390625,-91.050048828125
27.5205078125,-93.22314453125
25.6025390625,-96.47607421875
23.6318359375,-100.125
22.3125,-103.535400390625
21.8857421875,-106.25341796875
22.0966796875,-108.087646484375
22.43359375,-109.082275390625
22.4658203125,-109.42138671875
22.1044921875,-109.27392578125
21.6142578125,-108.697998046875
21.408203125,-107.659423828125
21.7509765625,-106.180419921875
22.568359375,-104.502685546875
23.4453125,-103.089111328125
23.8330078125,-102.399169921875
23.3525390625,-102.587646484375
22.0419921875,-103.37939453125
20.4111328125,-104.227783203125
19.1943359375,-104.6875
19.0009765625,-104.70361328125
20.01171875,-104.638671875
21.904296875,-105.00341796875
24.0302734375,-106.0849609375
25.7236328125,-107.732421875
26.5986328125,-109.427734375
26.6826171875,-110.589111328125
26.32421875,-110.897705078125
25.9677734375,-110.4658203125
25.91015625,-109.7841796875
26.2138671875,-109.489501953125
26.7421875,-110.056884765625
27.26171875,-111.571533203125
27.55078125,-113.669677734375
27.4482421875,-115.701904296875
26.9111328125,-117.0302734375
26.0400390625,-117.308837890625
25.0693359375,-116.6328125
24.271484375,-115.456787109375
23.8515625,-114.38525390625
23.87890625,-113.9560546875
24.283203125,-114.47705078125
24.9150390625,-115.95068359375
25.587890625,-118.0703125
26.142578125,-120.312255859375
26.4892578125,-122.131591796875
26.642578125,-123.17138671875
26.6904296875,-123.4296875
26.751953125,-123.264404296875
26.9091796875,-123.222412109375
27.1806640625,-123.7763671875
27.525390625,-125.0625
27.9013671875,-126.812255859375
28.349609375,-128.43505859375
29.02734375,-129.239990234375
30.154296875,-128.658447265625
31.8525390625,-126.446044921875
34.009765625,-122.833984375
36.1923828125,-118.571044921875
37.7373046875,-114.7353515625
37.951171875,-112.342041015625
36.3720703125,-111.901123046875
33.001953125,-113.21533203125
28.3701171875,-115.53125
23.400390625,-117.954345703125
19.1259765625,-119.82421875
16.33203125,-120.8623046875
15.306640625,-121.096435546875
15.7802734375,-120.75439453125
17.1025390625,-120.20068359375
18.5986328125,-119.93994140625
19.8984375,-120.522216796875
21.046875,-122.3359375
22.3603515625,-125.33642578125
24.119140625,-128.9541015625
26.31640625,-132.282470703125
28.6220703125,-134.51416015625
30.583984375,-135.3388671875
31.935546875,-135.056884765625
32.7900390625,-134.3466796875
33.587890625,-133.871337890625
34.7822265625,-133.98828125
36.4775390625,-134.707275390625
38.2841796875,-135.79150390625
39.4970703125,-136.881591796875
39.5361328125,-137.55322265625
38.330078125,-137.380615234375
36.443359375,-136.067626953125
34.8095703125,-133.615234375
34.251953125,-130.4140625
34.9853515625,-127.137939453125
36.4482421875,-124.48095703125
37.578125,-122.874755859375
37.3779296875,-122.325439453125
35.466796875,-122.480224609375
32.29296875,-122.901123046875
28.9189453125,-123.338623046875
26.5087890625,-123.803955078125
25.7841796875,-124.411865234375
26.7001953125,-125.130615234375
28.5263671875,-125.66748046875
30.2412109375,-125.555908203125
31.02734375,-124.3720703125
30.6240234375,-121.933837890625
29.376953125,-118.37158203125
28.033203125,-114.015625
27.404296875,-109.1904296875
28.017578125,-104.001953125
29.9326171875,-98.20703125
32.7080078125,-91.20703125
35.546875,-82.15283203125
37.5712890625,-70.135009765625
38.1748046875,-54.408935546875
37.3115234375,-34.586181640625
35.5078125,-10.681396484375
33.6005859375,16.88818359375
32.353515625,47.285888671875
32.1220703125,79.240478515625
32.681640625,111.164306640625
33.3359375,141.451416015625
33.2900390625,168.849853515625
32.095703125,192.722900390625
29.84375,213.028076171875
27.00390625,229.989990234375
24.08203125,243.64306640625
21.392578125,253.53271484375
19.04296875,258.823974609375
17.0908203125,258.81103515625
15.6982421875,253.49755859375
15.1953125,243.847900390625
15.95703125,231.51025390625
18.1630859375,218.169189453125
21.6162109375,204.91650390625
25.734375,191.984619140625
29.7158203125,178.940185546875
32.7607421875,165.189697265625
34.28125,150.463134765625
34.01171875,135.028564453125
32.05859375,119.587890625
28.9033203125,104.93115234375
25.33984375,91.59375
22.291015625,79.665771484375
20.5263671875,68.8173828125
20.3916015625,58.49755859375
21.6875,48.175048828125
23.7568359375,37.54833984375
25.7197265625,26.616455078125
26.7626953125,15.641357421875
26.404296875,4.99609375
24.6494140625,-4.959716796875
22.01171875,-13.994873046875
19.33984375,-22.0546875
17.5146484375,-29.275390625
17.12890625,-35.908203125
18.2802734375,-42.222900390625
20.5703125,-48.384033203125
23.26171875,-54.364990234375
25.564453125,-59.894775390625
26.9072265625,-64.5087890625
27.11328125,-67.772705078125
26.4189453125,-69.593505859375
25.36328125,-70.43701171875
24.560546875,-71.244873046875
24.4697265625,-73.044189453125
25.2265625,-76.484130859375
26.591796875,-81.545654296875
28.0341796875,-87.585693359375
28.9111328125,-93.634765625
28.7138671875,-98.79150390625
27.2646484375,-102.515625
24.783203125,-104.677734375
21.78515625,-105.418212890625
18.8583984375,-104.959228515625
16.458984375,-103.5654296875
14.8232421875,-101.627197265625
13.978515625,-99.71533203125
13.796875,-98.45068359375
14.0439453125,-98.264892578125
14.4443359375,-99.2080078125
14.70703125,-100.949951171875
14.58203125,-102.919677734375
13.935546875,-104.51220703125
12.80859375,-105.322509765625
11.49609375,-105.31494140625
10.48828125,-104.840087890625
10.298828125,-104.435791015625
11.2216796875,-104.521240234375
13.1435546875,-105.162841796875
15.54296875,-106.067626953125
17.6416015625,-106.7705078125
18.69921875,-106.9423828125
18.26953125,-106.60107421875
16.375,-106.11474609375
13.49609375,-105.95263671875
10.40234375,-106.38525390625
7.884765625,-107.307373046875
6.5029296875,-108.298828125
6.416015625,-108.892578125
7.40625,-108.8525390625
9.0068359375,-108.323486328125
10.6884765625,-107.755615234375
11.9990234375,-107.64892578125
12.6708984375,-108.23388671875
12.6455078125,-109.278076171875
12.0498046875,-110.15869140625
11.1318359375,-110.1875
10.21875,-109.0322265625
9.6591796875,-106.958251953125
9.755859375,-104.69775390625
10.66015625,-103.012451171875
12.3017578125,-102.251708984375
14.396484375,-102.22509765625
16.5439453125,-102.419921875
18.33203125,-102.353515625
19.3994140625,-101.831787109375
19.4765625,-100.99755859375
18.466796875,-100.21044921875
16.5048828125,-99.84619140625
13.9326171875,-100.08447265625
11.19140625,-100.7802734375
8.6455078125,-101.478515625
6.486328125,-101.6083984375
4.7451171875,-100.800537109375
3.41796875,-99.13525390625
2.552734375,-97.169921875
2.24609375,-95.6826171875
2.5068359375,-95.253173828125
3.1474609375,-95.919189453125
3.83203125,-97.10107421875
4.25,-97.87353515625
4.306640625,-97.437255859375
4.2236328125,-95.580078125
4.4716796875,-92.8291015625
5.5791015625,-90.180908203125
7.865234375,-88.553466796875
11.2236328125,-88.29638671875
15.0537109375,-89.011962890625
18.41796875,-89.805419921875
20.3466796875,-89.784912109375
20.23046875,-88.534423828125
18.1064453125,-86.28662109375
14.677734375,-83.741943359375
11.044921875,-81.66455078125
8.251953125,-80.523681640625
6.8623046875,-80.350341796875
6.7685546875,-80.8583984375
7.3134765625,-81.665771484375
7.671875,-82.479736328125
7.26171875,-83.192138671875
6.0322265625,-83.90185546875
4.447265625,-84.853271484375
3.1640625,-86.28076171875
2.6240234375,-88.195556640625
2.7490234375,-90.271728515625
2.9677734375,-91.95849609375
2.5185546875,-92.792236328125
0.8876953125,-92.7041015625
-1.8720703125,-92.115234375
-5.154296875,-91.70556640625
-8.0791015625,-92.03125
-9.912109375,-93.2216796875
-10.361328125,-94.9208984375
-9.6669921875,-96.505126953125
-8.466796875,-97.41259765625
-7.517578125,-97.44140625
-7.4033203125,-96.861083984375
-8.306640625,-96.28369140625
-9.9853515625,-96.36181640625
-11.931640625,-97.4375
-13.626953125,-99.3203125
-14.771484375,-101.3408203125
-15.353515625,-102.68115234375
-15.5361328125,-102.816650390625
-15.4892578125,-101.81982421875
-15.2529296875,-100.33154296875
-14.787109375,-99.195068359375
-14.1103515625,-98.95849609375
-13.443359375,-99.584228515625
-13.1923828125,-100.516357421875
-13.7978515625,-101.09228515625
-15.505859375,-100.96044921875
-18.20703125,-100.218505859375
-21.451171875,-99.22802734375
-24.57421875,-98.299072265625
-26.9189453125,-97.5556640625
-27.96484375,-97.0029296875
-27.4208984375,-96.648681640625
-25.2939453125,-96.523681640625
-21.962890625,-96.598388671875
-18.169921875,-96.7099609375
-14.8583984375,-96.58447265625
-12.818359375,-95.955810546875
-12.3271484375,-94.73046875
-13.02734375,-93.0615234375
-14.1337890625,-91.3134765625
-14.8818359375,-89.89501953125
-14.92578125,-89.05517578125
-14.447265625,-88.728759765625
-13.93359375,-88.53369140625
-13.8154296875,-87.942626953125
-14.1728515625,-86.579345703125
-14.708984375,-84.50634765625
-14.9619140625,-82.310791015625
-14.6005859375,-80.855712890625
-13.62109375,-80.774169921875
-12.35546875,-82.024169921875
-11.3203125,-83.80859375
-11.0078125,-84.91845703125
-11.6806640625,-84.3447265625
-13.2353515625,-81.830810546875
-15.1865234375,-78.085693359375
-16.7763671875,-74.510986328125
-17.267578125,-72.558349609375
-16.2626953125,-73.0380859375
-13.9609375,-75.776123046875
-11.1513671875,-79.7548828125
-8.8994140625,-83.585693359375
-8.0576171875,-86.07373046875
-8.859375,-86.625244140625
-10.8095703125,-85.405517578125
-12.9111328125,-83.20703125
-14.1123046875,-81.125
-13.7705078125,-80.158935546875
-11.9375,-80.871337890625
-9.37109375,-83.2119140625
-7.2412109375,-86.558349609375
-6.6396484375,-90.023193359375
-8.0732421875,-92.861328125
-11.1474609375,-94.79443359375
-14.66015625,-96.054443359375
-17.103515625,-97.119140625
-17.44921875,-98.34619140625
-15.7451171875,-99.713134765625
-13.1708984375,-100.8017578125
-11.447265625,-101.02880859375
-11.8779296875,-100.007080078125
-14.5703125,-97.829345703125
-18.2802734375,-95.127197265625
-20.9892578125,-92.856201171875
-20.900390625,-91.917236328125
-17.2978515625,-92.71142578125
-10.896484375,-94.8515625
-3.5068359375,-97.240478515625
2.775390625,-98.590087890625
6.466796875,-98.12646484375
7.25390625,-96.04736328125
5.921875,-93.39208984375
3.798828125,-91.433837890625
2.0693359375,-91.00927734375
1.3291015625,-92.135986328125
1.53515625,-94.058837890625
2.2451171875,-95.6083984375
2.9921875,-95.71240234375
3.5673828125,-93.89794921875
4.0849609375,-90.58154296875
4.828125,-86.97265625
6.01171875,-84.545654296875
7.6123046875,-84.37060546875
9.376953125,-86.620361328125
10.9697265625,-90.55615234375
12.17578125,-94.9111328125
13,-98.45751953125
13.5966796875,-100.43017578125
14.0869140625,-100.6640625
14.384765625,-99.454833984375
14.1962890625,-97.371337890625
13.2275390625,-95.107421875
11.4267578125,-93.365966796875
9.095703125,-92.6865234375
6.759765625,-93.24169921875
4.93359375,-94.74755859375
3.931640625,-96.598388671875
3.8037109375,-98.186767578125
4.408203125,-99.1728515625
5.517578125,-99.537353515625
6.9072265625,-99.44091796875
8.353515625,-99.0361328125
9.6181640625,-98.40966796875
10.4462890625,-97.646484375
10.6796875,-96.93359375
10.3828125,-96.54638671875
9.90234375,-96.6787109375
9.74609375,-97.268798828125
10.376953125,-97.944580078125
11.9443359375,-98.160888671875
14.1455078125,-97.44384765625
16.3056640625,-95.638671875
17.66796875,-93.047119140625
17.7490234375,-90.33447265625
16.53515625,-88.22216796875
14.40625,-87.103271484375
11.8740234375,-86.859619140625
9.4013671875,-87.001708984375
7.412109375,-87.02734375
6.4091796875,-86.69091796875
6.90234375,-85.981201171875
9.06640625,-84.90576171875
12.3837890625,-83.371826171875
15.64453125,-81.321533203125
17.41796875,-78.953125
16.7568359375,-76.77392578125
13.7158203125,-75.3984375
9.357421875,-75.23681640625
5.2529296875,-76.3564453125
2.73828125,-78.5380859375
2.330078125,-81.437255859375
3.6259765625,-84.700927734375
5.6728515625,-87.9521484375
7.53125,-90.71240234375
8.658203125,-92.394287109375
8.978515625,-92.48974609375
8.7265625,-90.8876953125
8.2451171875,-88.045166015625
7.818359375,-84.85546875
7.58203125,-82.2353515625
7.5205078125,-80.749755859375
7.5478515625,-80.46630859375
7.6240234375,-81.0615234375
7.7802734375,-82.0234375
8.0791015625,-82.85107421875
8.517578125,-83.199462890625
9.01953125,-82.94091796875
9.5029296875,-82.09765625
9.943359375,-80.7099609375
10.3876953125,-78.77392578125
10.8896484375,-76.325927734375
11.4619140625,-73.607666015625
12.076171875,-71.149169921875
12.6748046875,-69.615478515625
13.189453125,-69.474609375
13.58203125,-70.6923828125
13.8974609375,-72.677490234375
14.251953125,-74.52734375
14.703125,-75.42822265625
15.11328125,-74.99658203125
15.1435546875,-73.41796875
14.388671875,-71.336669921875
12.6455078125,-69.565673828125
10.1318359375,-68.751708984375
7.52734375,-69.123291015625
5.78515625,-70.430908203125
5.748046875,-72.095703125
7.765625,-73.53369140625
11.50390625,-74.459228515625
16.078125,-75.033447265625
20.400390625,-75.71875
23.6328125,-76.9482421875
25.4375,-78.761962890625
25.970703125,-80.65966796875
25.642578125,-81.809814453125
24.8369140625,-81.501953125
23.7685546875,-79.58642578125
22.521484375,-76.602783203125
21.1572265625,-73.552734375
19.7802734375,-71.448974609375
18.53515625,-70.92529296875
17.56640625,-72.068359375
17.0205078125,-74.5322265625
17.06640625,-77.78515625
17.89453125,-81.35546875
19.603515625,-84.9541015625
22.0771484375,-88.489501953125
24.955078125,-91.942138671875
27.7744140625,-95.195068359375
30.2001953125,-97.925537109375
32.16015625,-99.667236328125
33.7880859375,-100.05224609375
35.2119140625,-99.07373046875
36.3720703125,-97.1953125
37.033203125,-95.21240234375
36.98046875,-93.9287109375
36.23828125,-93.74755859375
35.06640625,-94.41455078125
33.7685546875,-95.1171875
32.44140625,-94.934326171875
30.9599609375,-93.429443359375
29.2060546875,-91.010009765625
27.3623046875,-88.786865234375
25.9853515625,-88.012939453125
25.759765625,-89.37109375
27.037109375,-92.521240234375
29.455078125,-96.156982421875
31.9296875,-98.574462890625
33.0830078125,-98.51123046875
31.9306640625,-95.78173828125
28.4453125,-91.376708984375
23.6572265625,-86.9541015625
19.234375,-84.04345703125
16.71484375,-83.380126953125
16.859375,-84.718994140625
19.3857421875,-87.153076171875
23.19921875,-89.677978515625
26.9140625,-91.6513671875
29.39453125,-92.9306640625
30.1513671875,-93.722412109375
29.4130859375,-94.2666015625
27.93359375,-94.578369140625
26.59375,-94.439697265625
26.00390625,-93.60400390625
26.27734375,-92.0849609375
27.0771484375,-90.22998046875
27.8740234375,-88.549560546875
28.2333984375,-87.398193359375
27.9921875,-86.77783203125
27.2373046875,-86.34228515625
26.1572265625,-85.614013671875
24.9072265625,-84.2587890625
23.595703125,-82.27783203125
22.322265625,-80.0361328125
21.20703125,-78.114501953125
20.390625,-77.061767578125
19.986328125,-77.152099609375
20.041015625,-78.24267578125
20.5009765625,-79.810546875
21.1962890625,-81.191650390625
21.841796875,-81.876708984375
22.103515625,-81.726806640625
21.7265625,-81.011474609375
20.69140625,-80.271240234375
19.2607421875,-80.098876953125
17.8681640625,-80.903076171875
16.8740234375,-82.73388671875
16.3759765625,-85.23193359375
16.2021484375,-87.7431640625
16.083984375,-89.558837890625
15.8525390625,-90.235595703125
15.5205078125,-89.80859375
15.189453125,-88.786865234375
14.9326171875,-87.89208984375
14.744140625,-87.662109375
