time,signal
0.0,514
0.0008338676630109204,515
0.0016677353260218409,516
0.0025016029890327614,516
0.0033354706520436817,517
0.004169338315054602,516
0.005003205978065523,516
0.005837073641076443,516
0.0066709413040873635,515
0.007504808967098284,515
0.008338676630109204,515
0.009172544293120125,515
0.010006411956131046,515
0.010840279619141966,514
0.011674147282152885,515
0.012508014945163806,515
0.013341882608174727,514
0.014175750271185648,515
0.015009617934196568,515
0.01584348559720749,515
0.016677353260218408,515
0.01751122092322933,515
0.01834508858624025,515
0.01917895624925117,517
0.02001282391226209,517
0.02084669157527301,518
0.021680559238283933,517
0.022514426901294852,516
0.02334829456430577,516
0.024182162227316693,515
0.025016029890327612,515
0.025849897553338535,514
0.026683765216349454,515
0.027517632879360373,516
0.028351500542371295,515
0.029185368205382214,517
0.030019235868393137,516
0.030853103531404056,516
0.03168697119441498,516
0.0325208388574259,517
0.033354706520436816,518
0.034188574183447736,517
0.03502244184645866,517
0.03585630950946958,517
0.0366901771724805,517
0.03752404483549142,516
0.03835791249850234,515
0.039191780161513264,515
0.04002564782452418,515
0.0408595154875351,515
0.04169338315054602,514
0.04252725081355694,514
0.043361118476567866,513
0.044194986139578785,513
0.045028853802589704,513
0.04586272146560062,513
0.04669658912861154,514
0.04753045679162247,514
0.04836432445463339,515
0.049198192117644306,515
0.050032059780655225,515
0.050865927443666144,517
0.05169979510667707,518
0.05253366276968799,518
0.05336753043269891,518
0.05420139809570983,517
0.055035265758720746,518
0.05586913342173167,518
0.05670300108474259,517
0.05753686874775351,515
0.05837073641076443,514
0.05920460407377535,513
0.060038471736786274,513
0.06087233939979719,513
0.06170620706280811,514
0.06254007472581903,514
0.06337394238882996,514
0.06420781005184087,514
0.0650416777148518,514
0.06587554537786272,514
0.06670941304087363,515
0.06754328070388456,515
0.06837714836689547,515
0.0692110160299064,515
0.07004488369291732,515
0.07087875135592824,514
0.07171261901893916,515
0.07254648668195007,516
0.073380354344961,516
0.07421422200797193,515
0.07504808967098284,515
0.07588195733399376,514
0.07671582499700468,514
0.0775496926600156,514
0.07838356032302653,515
0.07921742798603744,514
0.08005129564904837,514
0.08088516331205928,514
0.0817190309750702,514
0.08255289863808113,514
0.08338676630109204,515
0.08422063396410297,515
0.08505450162711388,515
0.0858883692901248,515
0.08672223695313573,515
0.08755610461614664,515
0.08838997227915757,515
0.08922383994216848,514
0.09005770760517941,515
0.09089157526819033,514
0.09172544293120125,513
0.09255931059421217,512
0.09339317825722308,513
0.09422704592023401,514
0.09506091358324494,514
0.09589478124625585,513
0.09672864890926677,514
0.09756251657227769,514
0.09839638423528861,515
0.09923025189829954,515
0.10006411956131045,515
0.10089798722432138,515
0.10173185488733229,515
0.10256572255034321,514
0.10339959021335414,514
0.10423345787636505,513
0.10506732553937598,514
0.10590119320238689,514
0.10673506086539782,513
0.10756892852840874,513
0.10840279619141965,513
0.10923666385443058,513
0.11007053151744149,513
0.11090439918045242,512
0.11173826684346334,511
0.11257213450647426,512
0.11340600216948518,511
0.1142398698324961,512
0.11507373749550702,513
0.11590760515851795,514
0.11674147282152886,514
0.11757534048453978,515
0.1184092081475507,515
0.11924307581056162,515
0.12007694347357255,515
0.12091081113658346,515
0.12174467879959439,514
0.1225785464626053,512
0.12341241412561622,512
0.12424628178862715,511
0.12508014945163806,510
0.12591401711464897,510
0.1267478847776599,510
0.12758175244067083,510
0.12841562010368174,509
0.12924948776669268,509
0.1300833554297036,510
0.1309172230927145,510
0.13175109075572544,511
0.13258495841873635,511
0.13341882608174727,512
0.13425269374475818,512
0.13508656140776912,512
0.13592042907078003,513
0.13675429673379094,513
0.13758816439680188,515
0.1384220320598128,514
0.1392558997228237,513
0.14008976738583465,513
0.14092363504884556,512
0.14175750271185647,512
0.14259137037486738,512
0.14342523803787832,511
0.14425910570088923,510
0.14509297336390015,510
0.14592684102691109,509
0.146760708689922,509
0.1475945763529329,510
0.14842844401594385,511
0.14926231167895476,512
0.15009617934196567,511
0.1509300470049766,511
0.15176391466798753,511
0.15259778233099844,512
0.15343164999400935,511
0.1542655176570203,510
0.1550993853200312,511
0.15593325298304211,510
0.15676712064605305,509
0.15760098830906397,509
0.15843485597207488,508
0.1592687236350858,510
0.16010259129809673,509
0.16093645896110764,508
0.16177032662411855,508
0.1626041942871295,509
0.1634380619501404,510
0.16427192961315132,510
0.16510579727616226,510
0.16593966493917317,510
0.16677353260218408,511
0.167607400265195,510
0.16844126792820593,510
0.16927513559121685,510
0.17010900325422776,511
0.1709428709172387,511
0.1717767385802496,511
0.17261060624326052,511
0.17344447390627146,510
0.17427834156928237,509
0.1751122092322933,509
0.1759460768953042,509
0.17677994455831514,508
0.17761381222132605,508
0.17844767988433696,508
0.1792815475473479,508
0.18011541521035881,509
0.18094928287336973,509
0.18178315053638067,509
0.18261701819939158,509
0.1834508858624025,509
0.1842847535254134,509
0.18511862118842434,509
0.18595248885143525,510
0.18678635651444617,509
0.1876202241774571,509
0.18845409184046802,510
0.18928795950347893,510
0.19012182716648987,509
0.19095569482950078,509
0.1917895624925117,509
0.1926234301555226,510
0.19345729781853355,510
0.19429116548154446,510
0.19512503314455537,510
0.1959589008075663,509
0.19679276847057722,510
0.19762663613358813,509
0.19846050379659907,509
0.19929437145961,509
0.2001282391226209,508
0.2009621067856318,509
0.20179597444864275,509
0.20262984211165366,509
0.20346370977466458,509
0.20429757743767551,509
0.20513144510068643,509
0.20596531276369734,509
0.20679918042670828,508
0.2076330480897192,508
0.2084669157527301,507
0.20930078341574102,507
0.21013465107875196,507
0.21096851874176287,507
0.21180238640477378,508
0.21263625406778472,507
0.21347012173079563,508
0.21430398939380654,509
0.21513785705681748,509
0.2159717247198284,509
0.2168055923828393,509
0.21763946004585025,509
0.21847332770886116,510
0.21930719537187207,510
0.22014106303488298,510
0.22097493069789392,509
0.22180879836090484,509
0.22264266602391575,508
0.2234765336869267,508
0.2243104013499376,508
0.2251442690129485,508
0.22597813667595945,507
0.22681200433897036,507
0.22764587200198128,506
0.2284797396649922,507
0.22931360732800313,506
0.23014747499101404,507
0.23098134265402495,508
0.2318152103170359,509
0.2326490779800468,509
0.23348294564305772,509
0.23431681330606866,509
0.23515068096907957,512
0.23598454863209048,511
0.2368184162951014,512
0.23765228395811233,511
0.23848615162112324,510
0.23932001928413416,510
0.2401538869471451,509
0.240987754610156,509
0.24182162227316692,508
0.24265548993617786,507
0.24348935759918877,506
0.24432322526219968,506
0.2451570929252106,506
0.24599096058822154,506
0.24682482825123245,506
0.24765869591424336,506
0.2484925635772543,507
0.2493264312402652,507
0.2501602989032761,507
0.25099416656628704,507
0.25182803422929795,507
0.2526619018923089,508
0.2534957695553198,508
0.25432963721833074,507
0.25516350488134165,507
0.25599737254435256,507
0.2568312402073635,508
0.2576651078703744,507
0.25849897553338536,508
0.25933284319639627,507
0.2601667108594072,508
0.2610005785224181,510
0.261834446185429,510
0.2626683138484399,510
0.2635021815114509,511
0.2643360491744618,510
0.2651699168374727,510
0.2660037845004836,509
0.26683765216349453,509
0.26767151982650544,508
0.26850538748951636,509
0.2693392551525273,510
0.27017312281553824,510
0.27100699047854915,510
0.27184085814156006,511
0.27267472580457097,511
0.2735085934675819,509
0.2743424611305928,510
0.27517632879360376,510
0.2760101964566147,510
0.2768440641196256,511
0.2776779317826365,510
0.2785117994456474,510
0.2793456671086583,509
0.2801795347716693,509
0.2810134024346802,508
0.2818472700976911,508
0.28268113776070203,509
0.28351500542371294,510
0.28434887308672385,510
0.28518274074973476,510
0.28601660841274573,510
0.28685047607575664,510
0.28768434373876756,511
0.28851821140177847,511
0.2893520790647894,512
0.2901859467278003,511
0.2910198143908112,510
0.29185368205382217,509
0.2926875497168331,508
0.293521417379844,508
0.2943552850428549,507
0.2951891527058658,507
0.29602302036887673,508
0.2968568880318877,508
0.2976907556948986,508
0.2985246233579095,508
0.29935849102092044,508
0.30019235868393135,509
0.30102622634694226,510
0.3018600940099532,511
0.30269396167296414,511
0.30352782933597505,511
0.30436169699898596,510
0.3051955646619969,509
0.3060294323250078,509
0.3068632999880187,510
0.3076971676510296,509
0.3085310353140406,509
0.3093649029770515,508
0.3101987706400624,507
0.3110326383030733,507
0.31186650596608423,507
0.31270037362909514,507
0.3135342412921061,508
0.314368108955117,507
0.31520197661812793,508
0.31603584428113884,508
0.31686971194414976,508
0.31770357960716067,509
0.3185374472701716,509
0.31937131493318255,509
0.32020518259619346,509
0.3210390502592044,510
0.3218729179222153,510
0.3227067855852262,510
0.3235406532482371,509
0.3243745209112481,508
0.325208388574259,508
0.3260422562372699,509
0.3268761239002808,508
0.3277099915632917,507
0.32854385922630264,507
0.32937772688931355,508
0.3302115945523245,508
0.33104546221533543,509
0.33187932987834634,509
0.33271319754135725,510
0.33354706520436816,511
0.3343809328673791,512
0.33521480053039,512
0.33604866819340096,512
0.33688253585641187,512
0.3377164035194228,511
0.3385502711824337,511
0.3393841388454446,511
0.3402180065084555,510
0.3410518741714665,509
0.3418857418344774,509
0.3427196094974883,508
0.3435534771604992,508
0.34438734482351013,508
0.34522121248652105,507
0.34605508014953196,507
0.3468889478125429,508
0.34772281547555384,509
0.34855668313856475,509
0.34939055080157566,509
0.3502244184645866,509
0.3510582861275975,510
0.3518921537906084,509
0.35272602145361936,509
0.3535598891166303,509
0.3543937567796412,508
0.3552276244426521,508
0.356061492105663,508
0.3568953597686739,507
0.3577292274316849,507
0.3585630950946958,507
0.3593969627577067,507
0.36023083042071763,506
0.36106469808372854,505
0.36189856574673945,505
0.36273243340975037,505
0.36356630107276133,505
0.36440016873577225,506
0.36523403639878316,508
0.36606790406179407,509
0.366901771724805,509
0.3677356393878159,509
0.3685695070508268,509
0.3694033747138378,509
0.3702372423768487,509
0.3710711100398596,509
0.3719049777028705,508
0.3727388453658814,508
0.37357271302889233,507
0.3744065806919033,507
0.3752404483549142,507
0.3760743160179251,507
0.37690818368093604,508
0.37774205134394695,508
0.37857591900695786,507
0.3794097866699688,508
0.38024365433297974,510
0.38107752199599065,510
0.38191138965900157,510
0.3827452573220125,509
0.3835791249850234,510
0.3844129926480343,510
0.3852468603110452,510
0.3860807279740562,510
0.3869145956370671,510
0.387748463300078,510
0.3885823309630889,510
0.38941619862609983,510
0.39025006628911074,508
0.3910839339521217,509
0.3919178016151326,509
0.39275166927814353,508
0.39358553694115445,509
0.39441940460416536,509
0.39525327226717627,509
0.3960871399301872,508
0.39692100759319815,508
0.39775487525620906,507
0.39858874291922,507
0.3994226105822309,507
0.4002564782452418,509
0.4010903459082527,509
0.4019242135712636,508
0.4027580812342746,509
0.4035919488972855,508
0.4044258165602964,508
0.4052596842233073,509
0.40609355188631824,508
0.40692741954932915,508
0.4077612872123401,507
0.40859515487535103,509
0.40942902253836194,508
0.41026289020137285,508
0.41109675786438377,508
0.4119306255273947,508
0.4127644931904056,509
0.41359836085341656,509
0.41443222851642747,508
0.4152660961794384,507
0.4160999638424493,508
0.4169338315054602,509
0.4177676991684711,509
0.41860156683148203,509
0.419435434494493,509
0.4202693021575039,510
0.4211031698205148,510
0.42193703748352573,510
0.42277090514653665,509
0.42360477280954756,509
0.4244386404725585,509
0.42527250813556944,508
0.42610637579858035,507
0.42694024346159126,507
0.4277741111246022,507
0.4286079787876131,507
0.429441846450624,508
0.43027571411363497,508
0.4311095817766459,508
0.4319434494396568,508
0.4327773171026677,509
0.4336111847656786,510
0.4344450524286895,510
0.4352789200917005,510
0.4361127877547114,511
0.4369466554177223,511
0.43778052308073323,512
0.43861439074374414,512
0.43944825840675505,511
0.44028212606976597,511
0.44111599373277693,511
0.44194986139578785,510
0.44278372905879876,509
0.44361759672180967,508
0.4444514643848206,508
0.4452853320478315,508
0.4461191997108424,508
0.4469530673738534,508
0.4477869350368643,508
0.4486208026998752,508
0.4494546703628861,509
0.450288538025897,510
0.45112240568890793,511
0.4519562733519189,510
0.4527901410149298,510
0.4536240086779407,510
0.45445787634095164,509
0.45529174400396255,508
0.45612561166697346,508
0.4569594793299844,507
0.45779334699299534,506
0.45862721465600625,505
0.45946108231901717,505
0.4602949499820281,504
0.461128817645039,504
0.4619626853080499,503
0.4627965529710608,502
0.4636304206340718,502
0.4644642882970827,501
0.4652981559600936,501
0.4661320236231045,501
0.46696589128611543,500
0.46779975894912634,499
0.4686336266121373,498
0.4694674942751482,497
0.47030136193815913,497
0.47113522960117005,496
0.47196909726418096,494
0.47280296492719187,494
0.4736368325902028,493
0.47447070025321375,492
0.47530456791622466,491
0.4761384355792356,490
0.4769723032422465,490
0.4778061709052574,490
0.4786400385682683,488
0.4794739062312792,489
0.4803077738942902,488
0.4811416415573011,489
0.481975509220312,489
0.4828093768833229,489
0.48364324454633384,489
0.48447711220934475,488
0.4853109798723557,488
0.48614484753536663,487
0.48697871519837754,486
0.48781258286138846,486
0.48864645052439937,484
0.4894803181874103,484
0.4903141858504212,484
0.49114805351343216,483
0.49198192117644307,483
0.492815788839454,483
0.4936496565024649,482
0.4944835241654758,482
0.4953173918284867,482
0.49615125949149763,482
0.4969851271545086,482
0.4978189948175195,483
0.4986528624805304,484
0.49948673014354134,484
0.5003205978065522,485
0.5011544654695632,485
0.5019883331325741,486
0.502822200795585,488
0.5036560684585959,487
0.5044899361216069,487
0.5053238037846178,487
0.5061576714476287,488
0.5069915391106397,488
0.5078254067736505,487
0.5086592744366615,487
0.5094931420996723,487
0.5103270097626833,487
0.5111608774256943,487
0.5119947450887051,488
0.5128286127517161,488
0.513662480414727,488
0.5144963480777379,488
0.5153302157407488,489
0.5161640834037597,489
0.5169979510667707,489
0.5178318187297816,489
0.5186656863927925,489
0.5194995540558034,490
0.5203334217188144,490
0.5211672893818252,490
0.5220011570448362,491
0.5228350247078472,492
0.523668892370858,491
0.524502760033869,493
0.5253366276968798,492
0.5261704953598908,492
0.5270043630229018,492
0.5278382306859126,492
0.5286720983489236,493
0.5295059660119344,492
0.5303398336749454,493
0.5311737013379563,493
0.5320075690009672,494
0.5328414366639782,493
0.5336753043269891,494
0.53450917199,495
0.5353430396530109,497
0.5361769073160219,498
0.5370107749790327,498
0.5378446426420437,499
0.5386785103050546,499
0.5395123779680655,499
0.5403462456310765,498
0.5411801132940873,497
0.5420139809570983,496
0.5428478486201092,496
0.5436817162831201,496
0.5445155839461311,496
0.5453494516091419,496
0.5461833192721529,496
0.5470171869351638,496
0.5478510545981747,496
0.5486849222611856,496
0.5495187899241966,496
0.5503526575872075,496
0.5511865252502184,497
0.5520203929132294,497
0.5528542605762402,497
0.5536881282392512,497
0.5545219959022621,497
0.555355863565273,497
0.556189731228284,496
0.5570235988912948,496
0.5578574665543058,496
0.5586913342173166,495
0.5595252018803276,495
0.5603590695433386,495
0.5611929372063494,495
0.5620268048693604,495
0.5628606725323713,497
0.5636945401953822,498
0.5645284078583931,498
0.5653622755214041,499
0.566196143184415,500
0.5670300108474259,501
0.5678638785104368,502
0.5686977461734477,502
0.5695316138364587,503
0.5703654814994695,502
0.5711993491624805,501
0.5720332168254915,502
0.5728670844885023,500
0.5737009521515133,499
0.5745348198145241,498
0.5753686874775351,498
0.576202555140546,498
0.5770364228035569,497
0.5778702904665679,497
0.5787041581295788,497
0.5795380257925897,497
0.5803718934556006,498
0.5812057611186116,498
0.5820396287816224,498
0.5828734964446334,498
0.5837073641076443,498
0.5845412317706552,499
0.5853750994336662,499
0.586208967096677,499
0.587042834759688,499
0.587876702422699,499
0.5887105700857098,499
0.5895444377487208,500
0.5903783054117316,499
0.5912121730747426,498
0.5920460407377535,499
0.5928799084007644,500
0.5937137760637754,499
0.5945476437267863,498
0.5953815113897972,498
0.5962153790528081,498
0.597049246715819,497
0.5978831143788299,497
0.5987169820418409,497
0.5995508497048518,498
0.6003847173678627,498
0.6012185850308737,499
0.6020524526938845,499
0.6028863203568955,499
0.6037201880199063,500
0.6045540556829173,500
0.6053879233459283,499
0.6062217910089391,499
0.6070556586719501,497
0.607889526334961,497
0.6087233939979719,496
0.6095572616609828,496
0.6103911293239938,496
0.6112249969870047,496
0.6120588646500156,496
0.6128927323130265,496
0.6137265999760374,496
0.6145604676390484,497
0.6153943353020592,498
0.6162282029650702,498
0.6170620706280812,499
0.617895938291092,499
0.618729805954103,499
0.6195636736171138,499
0.6203975412801248,499
0.6212314089431358,500
0.6220652766061466,499
0.6228991442691576,500
0.6237330119321685,500
0.6245668795951794,500
0.6254007472581903,500
0.6262346149212012,499
0.6270684825842122,498
0.6279023502472231,497
0.628736217910234,497
0.6295700855732449,497
0.6304039532362559,496
0.6312378208992667,496
0.6320716885622777,497
0.6329055562252887,498
0.6337394238882995,499
0.6345732915513105,499
0.6354071592143213,500
0.6362410268773323,500
0.6370748945403432,499
0.6379087622033541,498
0.6387426298663651,499
0.639576497529376,497
0.6404103651923869,497
0.6412442328553978,498
0.6420781005184087,497
0.6429119681814196,496
0.6437458358444306,495
0.6445797035074415,495
0.6454135711704524,495
0.6462474388334634,496
0.6470813064964742,496
0.6479151741594852,496
0.6487490418224962,497
0.649582909485507,497
0.650416777148518,498
0.6512506448115288,498
0.6520845124745398,498
0.6529183801375507,498
0.6537522478005616,499
0.6545861154635726,499
0.6554199831265834,498
0.6562538507895944,498
0.6570877184526053,498
0.6579215861156162,497
0.6587554537786271,497
0.6595893214416381,497
0.660423189104649,497
0.6612570567676599,496
0.6620909244306709,496
0.6629247920936817,497
0.6637586597566927,498
0.6645925274197035,497
0.6654263950827145,497
0.6662602627457255,498
0.6670941304087363,499
0.6679279980717473,499
0.6687618657347582,499
0.6695957333977691,499
0.67042960106078,498
0.671263468723791,498
0.6720973363868019,498
0.6729312040498128,497
0.6737650717128237,497
0.6745989393758346,497
0.6754328070388456,497
0.6762666747018564,497
0.6771005423648674,497
0.6779344100278784,497
0.6787682776908892,497
0.6796021453539002,497
0.680436013016911,498
0.681269880679922,497
0.682103748342933,498
0.6829376160059438,498
0.6837714836689548,498
0.6846053513319657,499
0.6854392189949766,500
0.6862730866579875,500
0.6871069543209984,499
0.6879408219840094,499
0.6887746896470203,498
0.6896085573100312,500
0.6904424249730421,499
0.6912762926360531,499
0.6921101602990639,498
0.6929440279620749,499
0.6937778956250858,498
0.6946117632880967,498
0.6954456309511077,498
0.6962794986141185,497
0.6971133662771295,498
0.6979472339401404,499
0.6987811016031513,500
0.6996149692661623,499
0.7004488369291731,499
0.7012827045921841,499
0.702116572255195,501
0.7029504399182059,500
0.7037843075812168,501
0.7046181752442278,500
0.7054520429072387,499
0.7062859105702496,500
0.7071197782332606,500
0.7079536458962714,499
0.7087875135592824,498
0.7096213812222932,499
0.7104552488853042,498
0.7112891165483152,498
0.712122984211326,498
0.712956851874337,498
0.7137907195373479,498
0.7146245872003588,499
0.7154584548633698,500
0.7162923225263806,500
0.7171261901893916,500
0.7179600578524025,500
0.7187939255154134,500
0.7196277931784243,501
0.7204616608414353,500
0.7212955285044462,500
0.7221293961674571,500
0.722963263830468,499
0.7237971314934789,500
0.7246309991564899,499
0.7254648668195007,499
0.7262987344825117,499
0.7271326021455227,499
0.7279664698085335,499
0.7288003374715445,499
0.7296342051345553,499
0.7304680727975663,499
0.7313019404605772,499
0.7321358081235881,500
0.7329696757865991,501
0.73380354344961,501
0.7346374111126209,501
0.7354712787756318,501
0.7363051464386428,502
0.7371390141016536,502
0.7379728817646646,502
0.7388067494276755,502
0.7396406170906864,501
0.7404744847536974,501
0.7413083524167082,502
0.7421422200797192,501
0.74297608774273,501
0.743809955405741,500
0.744643823068752,501
0.7454776907317628,502
0.7463115583947738,501
0.7471454260577847,501
0.7479792937207956,501
0.7488131613838066,501
0.7496470290468175,502
0.7504808967098284,503
0.7513147643728393,502
0.7521486320358503,502
0.7529824996988611,503
0.7538163673618721,502
0.754650235024883,502
0.7554841026878939,502
0.7563179703509049,502
0.7571518380139157,501
0.7579857056769267,501
0.7588195733399375,501
0.7596534410029485,500
0.7604873086659595,500
0.7613211763289703,499
0.7621550439919813,500
0.7629889116549922,501
0.7638227793180031,500
0.764656646981014,501
0.765490514644025,501
0.7663243823070359,501
0.7671582499700468,503
0.7679921176330577,503
0.7688259852960686,503
0.7696598529590796,502
0.7704937206220904,502
0.7713275882851014,502
0.7721614559481124,502
0.7729953236111232,501
0.7738291912741342,501
0.774663058937145,500
0.775496926600156,500
0.776330794263167,499
0.7771646619261778,499
0.7779985295891888,499
0.7788323972521997,500
0.7796662649152106,500
0.7805001325782215,500
0.7813340002412325,501
0.7821678679042434,501
0.7830017355672543,501
0.7838356032302652,501
0.7846694708932761,503
0.7855033385562871,503
0.7863372062192979,503
0.7871710738823089,503
0.7880049415453199,503
0.7888388092083307,504
0.7896726768713417,504
0.7905065445343525,504
0.7913404121973635,504
0.7921742798603744,503
0.7930081475233853,503
0.7938420151863963,503
0.7946758828494072,503
0.7955097505124181,502
0.796343618175429,503
0.79717748583844,503
0.7980113535014508,504
0.7988452211644618,504
0.7996790888274727,506
0.8005129564904836,507
0.8013468241534946,508
0.8021806918165054,509
0.8030145594795164,510
0.8038484271425272,509
0.8046822948055382,509
0.8055161624685492,510
0.80635003013156,511
0.807183897794571,511
0.8080177654575819,512
0.8088516331205928,512
0.8096855007836038,514
0.8105193684466147,514
0.8113532361096256,514
0.8121871037726365,515
0.8130209714356474,515
0.8138548390986583,517
0.8146887067616693,518
0.8155225744246802,519
0.8163564420876911,520
0.8171903097507021,520
0.8180241774137129,522
0.8188580450767239,523
0.8196919127397347,523
0.8205257804027457,523
0.8213596480657567,524
0.8221935157287675,525
0.8230273833917785,525
0.8238612510547894,525
0.8246951187178003,525
0.8255289863808112,525
0.8263628540438221,525
0.8271967217068331,526
0.828030589369844,527
0.8288644570328549,527
0.8296983246958658,527
0.8305321923588768,528
0.8313660600218876,528
0.8321999276848986,529
0.8330337953479096,529
0.8338676630109204,530
0.8347015306739314,530
0.8355353983369422,530
0.8363692659999532,530
0.8372031336629641,530
0.838037001325975,530
0.838870868988986,530
0.8397047366519969,530
0.8405386043150078,530
0.8413724719780187,529
0.8422063396410296,529
0.8430402073040406,529
0.8438740749670515,528
0.8447079426300624,527
0.8455418102930733,527
0.8463756779560843,528
0.8472095456190951,528
0.8480434132821061,528
0.848877280945117,528
0.8497111486081279,529
0.8505450162711389,529
0.8513788839341497,529
0.8522127515971607,529
0.8530466192601716,528
0.8538804869231825,529
0.8547143545861935,528
0.8555482222492043,528
0.8563820899122153,527
0.8572159575752262,528
0.8580498252382371,527
0.858883692901248,526
0.859717560564259,526
0.8605514282272699,526
0.8613852958902808,525
0.8622191635532918,525
0.8630530312163026,525
0.8638868988793136,526
0.8647207665423244,526
0.8655546342053354,525
0.8663885018683464,525
0.8672223695313572,527
0.8680562371943682,528
0.868890104857379,527
0.86972397252039,527
0.870557840183401,527
0.8713917078464118,527
0.8722255755094228,527
0.8730594431724337,527
0.8738933108354446,526
0.8747271784984555,526
0.8755610461614665,527
0.8763949138244774,526
0.8772287814874883,526
0.8780626491504993,527
0.8788965168135101,528
0.8797303844765211,527
0.8805642521395319,528
0.8813981198025429,527
0.8822319874655539,528
0.8830658551285647,528
0.8838997227915757,528
0.8847335904545865,528
0.8855674581175975,528
0.8864013257806084,528
0.8872351934436193,528
0.8880690611066303,527
0.8889029287696412,526
0.8897367964326521,526
0.890570664095663,526
0.891404531758674,525
0.8922383994216848,526
0.8930722670846958,526
0.8939061347477067,526
0.8947400024107176,525
0.8955738700737286,525
0.8964077377367394,525
0.8972416053997504,525
0.8980754730627613,525
0.8989093407257722,525
0.8997432083887832,526
0.900577076051794,527
0.901410943714805,527
0.9022448113778159,527
0.9030786790408268,527
0.9039125467038378,526
0.9047464143668487,526
0.9055802820298596,526
0.9064141496928705,525
0.9072480173558815,525
0.9080818850188923,526
0.9089157526819033,525
0.9097496203449142,524
0.9105834880079251,523
0.9114173556709361,522
0.9122512233339469,523
0.9130850909969579,522
0.9139189586599687,523
0.9147528263229797,524
0.9155866939859907,524
0.9164205616490015,523
0.9172544293120125,524
0.9180882969750234,525
0.9189221646380343,525
0.9197560323010452,526
0.9205898999640562,527
0.9214237676270671,528
0.922257635290078,528
0.923091502953089,528
0.9239253706160998,527
0.9247592382791108,527
0.9255931059421216,526
0.9264269736051326,525
0.9272608412681436,525
0.9280947089311544,524
0.9289285765941654,524
0.9297624442571762,525
0.9305963119201872,524
0.9314301795831981,525
0.932264047246209,525
0.93309791490922,526
0.9339317825722309,526
0.9347656502352418,526
0.9355995178982527,526
0.9364333855612637,526
0.9372672532242746,526
0.9381011208872855,525
0.9389349885502964,525
0.9397688562133073,525
0.9406027238763183,525
0.9414365915393291,523
0.9422704592023401,524
0.9431043268653511,523
0.9439381945283619,524
0.9447720621913729,524
0.9456059298543837,524
0.9464397975173947,524
0.9472736651804056,525
0.9481075328434165,525
0.9489414005064275,526
0.9497752681694384,525
0.9506091358324493,525
0.9514430034954602,525
0.9522768711584711,525
0.953110738821482,524
0.953944606484493,525
0.9547784741475039,525
0.9556123418105148,524
0.9564462094735258,523
0.9572800771365366,523
0.9581139447995476,522
0.9589478124625584,521
0.9597816801255694,522
0.9606155477885804,521
0.9614494154515912,522
0.9622832831146022,522
0.9631171507776131,522
0.963951018440624,523
0.964784886103635,524
0.9656187537666459,525
0.9664526214296568,525
0.9672864890926677,525
0.9681203567556786,524
0.9689542244186895,524
0.9697880920817005,523
0.9706219597447114,523
0.9714558274077223,522
0.9722896950707333,524
0.9731235627337441,524
0.9739574303967551,523
0.9747912980597659,522
0.9756251657227769,522
0.9764590333857879,522
0.9772929010487987,521
0.9781267687118097,521
0.9789606363748206,521
0.9797945040378315,522
0.9806283717008424,521
0.9814622393638534,521
0.9822961070268643,522
0.9831299746898752,522
0.9839638423528861,522
0.984797710015897,523
0.985631577678908,522
0.9864654453419188,522
0.9872993130049298,524
0.9881331806679408,523
0.9889670483309516,523
0.9898009159939626,522
0.9906347836569734,522
0.9914686513199844,521
0.9923025189829953,521
0.9931363866460062,520
0.9939702543090172,521
0.994804121972028,521
0.995637989635039,520
0.9964718572980499,520
0.9973057249610608,521
0.9981395926240718,521
0.9989734602870827,521
0.9998073279500936,522
1.0006411956131045,522
1.0014750632761154,522
1.0023089309391264,523
1.0031427986021373,522
1.0039766662651481,522
1.0048105339281592,522
1.00564440159117,522
1.006478269254181,522
1.0073121369171918,521
1.0081460045802029,520
1.0089798722432137,518
1.0098137399062246,518
1.0106476075692357,517
1.0114814752322465,517
1.0123153428952574,517
1.0131492105582682,517
1.0139830782212793,517
1.0148169458842902,516
1.015650813547301,517
1.016484681210312,516
1.017318548873323,517
1.0181524165363338,515
1.0189862841993447,516
1.0198201518623558,516
1.0206540195253666,514
1.0214878871883775,512
1.0223217548513885,510
1.0231556225143994,509
1.0239894901774103,507
1.0248233578404211,505
1.0256572255034322,504
1.026491093166443,503
1.027324960829454,503
1.028158828492465,502
1.0289926961554758,501
1.0298265638184867,501
1.0306604314814976,501
1.0314942991445086,501
1.0323281668075195,500
1.0331620344705303,500
1.0339959021335414,499
1.0348297697965523,499
1.0356636374595631,498
1.036497505122574,498
1.037331372785585,499
1.038165240448596,498
1.0389991081116068,498
1.0398329757746179,497
1.0406668434376287,496
1.0415007111006396,495
1.0423345787636504,494
1.0431684464266615,494
1.0440023140896724,493
1.0448361817526832,494
1.0456700494156943,494
1.0465039170787052,493
1.047337784741716,493
1.048171652404727,493
1.049005520067738,494
1.0498393877307488,493
1.0506732553937597,492
1.0515071230567707,493
1.0523409907197816,493
1.0531748583827925,493
1.0540087260458035,493
1.0548425937088144,492
1.0556764613718252,491
1.056510329034836,491
1.0573441966978472,490
1.058178064360858,490
1.059011932023869,490
1.05984579968688,491
1.0606796673498908,490
1.0615135350129017,490
1.0623474026759125,491
1.0631812703389236,492
1.0640151380019345,492
1.0648490056649453,492
1.0656828733279564,493
1.0665167409909673,493
1.0673506086539781,493
1.068184476316989,493
1.06901834398,494
1.069852211643011,495
1.0706860793060218,494
1.0715199469690329,494
1.0723538146320437,494
1.0731876822950546,493
1.0740215499580654,493
1.0748554176210765,493
1.0756892852840874,492
1.0765231529470982,492
1.0773570206101093,492
1.0781908882731202,491
1.079024755936131,491
1.0798586235991419,492
1.080692491262153,491
1.0815263589251638,491
1.0823602265881747,492
1.0831940942511857,492
1.0840279619141966,494
1.0848618295772074,494
1.0856956972402183,494
1.0865295649032294,494
1.0873634325662402,494
1.088197300229251,494
1.0890311678922622,494
1.089865035555273,494
1.0906989032182839,493
1.0915327708812947,493
1.0923666385443058,493
1.0932005062073167,492
1.0940343738703275,492
1.0948682415333386,492
1.0957021091963495,492
1.0965359768593603,492
1.0973698445223712,493
1.0982037121853823,492
1.0990375798483931,492
1.099871447511404,493
1.100705315174415,494
1.101539182837426,495
1.1023730505004368,496
1.1032069181634476,496
1.1040407858264587,495
1.1048746534894696,495
1.1057085211524804,495
1.1065423888154915,495
1.1073762564785024,494
1.1082101241415132,493
1.1090439918045243,494
1.1098778594675351,493
1.110711727130546,494
1.1115455947935569,493
1.112379462456568,493
1.1132133301195788,494
1.1140471977825896,494
1.1148810654456007,494
1.1157149331086116,494
1.1165488007716224,495
1.1173826684346333,496
1.1182165360976444,496
1.1190504037606552,496
1.119884271423666,495
1.1207181390866772,495
1.121552006749688,494
1.1223858744126989,494
1.1232197420757097,493
1.1240536097387208,494
1.1248874774017317,493
1.1257213450647425,493
1.1265552127277536,493
1.1273890803907645,494
1.1282229480537753,494
1.1290568157167862,495
1.1298906833797973,495
1.1307245510428081,496
1.131558418705819,496
1.13239228636883,496
1.133226154031841,496
1.1340600216948518,497
1.1348938893578626,497
1.1357277570208737,497
1.1365616246838846,496
1.1373954923468954,496
1.1382293600099065,495
1.1390632276729173,495
1.1398970953359282,494
1.140730962998939,495
1.1415648306619501,494
1.142398698324961,494
1.1432325659879718,493
1.144066433650983,492
1.1449003013139938,492
1.1457341689770046,493
1.1465680366400155,493
1.1474019043030266,493
1.1482357719660374,494
1.1490696396290483,494
1.1499035072920594,494
1.1507373749550702,495
1.151571242618081,495
1.152405110281092,496
1.153238977944103,496
1.1540728456071139,497
1.1549067132701247,496
1.1557405809331358,497
1.1565744485961467,498
1.1574083162591575,497
1.1582421839221684,497
1.1590760515851795,496
1.1599099192481903,497
1.1607437869112012,496
1.1615776545742122,496
1.162411522237223,495
1.163245389900234,495
1.1640792575632448,495
1.164913125226256,495
1.1657469928892668,496
1.1665808605522776,496
1.1674147282152887,496
1.1682485958782995,495
1.1690824635413104,495
1.1699163312043213,496
1.1707501988673323,496
1.1715840665303432,496
1.172417934193354,495
1.1732518018563651,495
1.174085669519376,496
1.1749195371823868,495
1.175753404845398,494
1.1765872725084088,494
1.1774211401714196,494
1.1782550078344305,494
1.1790888754974416,495
1.1799227431604524,495
1.1807566108234633,495
1.1815904784864744,496
1.1824243461494852,498
1.183258213812496,498
1.184092081475507,497
1.184925949138518,497
1.1857598168015289,498
1.1865936844645397,497
1.1874275521275508,496
1.1882614197905617,496
1.1890952874535725,497
1.1899291551165834,496
1.1907630227795944,496
1.1915968904426053,496
1.1924307581056162,495
1.1932646257686272,495
1.194098493431638,495
1.194932361094649,496
1.1957662287576598,497
1.1966000964206709,497
1.1974339640836817,497
1.1982678317466926,499
1.1991016994097037,500
1.1999355670727145,499
1.2007694347357254,500
1.2016033023987363,499
1.2024371700617473,499
1.2032710377247582,499
1.204104905387769,498
1.2049387730507801,498
1.205772640713791,498
1.2066065083768018,497
1.2074403760398127,497
1.2082742437028238,497
1.2091081113658346,496
1.2099419790288455,496
1.2107758466918566,496
1.2116097143548674,496
1.2124435820178783,496
1.2132774496808891,497
1.2141113173439002,497
1.214945185006911,498
1.215779052669922,497
1.216612920332933,498
1.2174467879959439,498
1.2182806556589547,498
1.2191145233219656,498
1.2199483909849766,499
1.2207822586479875,500
1.2216161263109984,500
1.2224499939740094,499
1.2232838616370203,499
1.2241177293000312,499
1.224951596963042,499
1.225785464626053,499
1.226619332289064,498
1.2274531999520748,499
1.2282870676150859,499
1.2291209352780967,499
1.2299548029411076,498
1.2307886706041185,498
1.2316225382671295,498
1.2324564059301404,499
1.2332902735931512,499
1.2341241412561623,499
1.2349580089191732,499
1.235791876582184,499
1.2366257442451951,499
1.237459611908206,500
1.2382934795712168,499
1.2391273472342277,499
1.2399612148972388,498
1.2407950825602496,498
1.2416289502232605,498
1.2424628178862716,497
1.2432966855492824,496
1.2441305532122933,497
1.2449644208753041,497
1.2457982885383152,498
1.246632156201326,499
1.247466023864337,499
1.248299891527348,499
1.2491337591903588,499
1.2499676268533697,499
1.2508014945163806,499
1.2516353621793916,500
1.2524692298424025,500
1.2533030975054134,500
1.2541369651684244,500
1.2549708328314353,500
1.2558047004944461,499
1.256638568157457,499
1.257472435820468,498
1.258306303483479,498
1.2591401711464898,498
1.2599740388095009,498
1.2608079064725117,497
1.2616417741355226,497
1.2624756417985334,499
1.2633095094615445,499
1.2641433771245554,499
1.2649772447875662,499
1.2658111124505773,500
1.2666449801135882,500
1.267478847776599,501
1.2683127154396099,501
1.269146583102621,501
1.2699804507656318,501
1.2708143184286427,501
1.2716481860916538,502
1.2724820537546646,501
1.2733159214176755,500
1.2741497890806863,500
1.2749836567436974,500
1.2758175244067083,500
1.2766513920697191,500
1.2774852597327302,499
1.278319127395741,499
1.279152995058752,500
1.2799868627217628,500
1.2808207303847738,500
1.2816545980477847,500
1.2824884657107956,501
1.2833223333738066,501
1.2841562010368175,501
1.2849900686998283,502
1.2858239363628392,502
1.2866578040258503,501
1.2874916716888611,501
1.288325539351872,502
1.289159407014883,501
1.289993274677894,501
1.2908271423409048,501
1.2916610100039156,501
1.2924948776669267,501
1.2933287453299376,500
1.2941626129929484,499
1.2949964806559595,499
1.2958303483189704,499
1.2966642159819812,499
1.2974980836449923,498
1.2983319513080032,499
1.299165818971014,499
1.2999996866340249,499
1.300833554297036,500
1.3016674219600468,501
1.3025012896230577,502
1.3033351572860687,501
1.3041690249490796,501
1.3050028926120905,501
1.3058367602751013,501
1.3066706279381124,500
1.3075044956011233,499
1.308338363264134,499
1.3091722309271452,498
1.310006098590156,500
1.310839966253167,501
1.3116738339161778,500
1.3125077015791888,500
1.3133415692421997,501
1.3141754369052105,502
1.3150093045682216,501
1.3158431722312325,503
1.3166770398942433,502
1.3175109075572542,503
1.3183447752202653,503
1.3191786428832761,503
1.320012510546287,502
1.320846378209298,502
1.321680245872309,502
1.3225141135353198,502
1.3233479811983306,501
1.3241818488613417,500
1.3250157165243526,500
1.3258495841873634,499
1.3266834518503745,499
1.3275173195133854,500
1.3283511871763962,500
1.329185054839407,500
1.3300189225024182,500
1.330852790165429,500
1.3316866578284399,500
1.332520525491451,500
1.3333543931544618,501
1.3341882608174727,501
1.3350221284804835,504
1.3358559961434946,504
1.3366898638065055,504
1.3375237314695163,503
1.3383575991325274,502
1.3391914667955382,503
1.340025334458549,503
1.34085920212156,503
1.341693069784571,503
1.342526937447582,502
1.3433608051105927,502
1.3441946727736038,502
1.3450285404366147,502
1.3458624080996255,501
1.3466962757626364,501
1.3475301434256475,501
1.3483640110886583,501
1.3491978787516692,502
1.3500317464146803,502
1.3508656140776911,502
1.351699481740702,502
1.3525333494037128,503
1.353367217066724,503
1.3542010847297348,502
1.3550349523927456,503
1.3558688200557567,502
1.3567026877187676,503
1.3575365553817784,503
1.3583704230447893,502
1.3592042907078004,501
1.3600381583708112,501
1.360872026033822,501
1.3617058936968331,501
1.362539761359844,501
1.3633736290228549,501
1.364207496685866,501
1.3650413643488768,502
1.3658752320118877,502
1.3667090996748985,503
1.3675429673379096,503
1.3683768350009204,503
1.3692107026639313,503
1.3700445703269424,503
1.3708784379899532,502
1.371712305652964,502
1.372546173315975,502
1.373380040978986,502
1.3742139086419969,502
1.3750477763050077,501
1.3758816439680188,501
1.3767155116310297,500
1.3775493792940405,501
1.3783832469570514,502
1.3792171146200625,503
1.3800509822830733,504
1.3808848499460842,504
1.3817187176090953,505
1.3825525852721061,505
1.383386452935117,505
1.3842203205981278,505
1.385054188261139,504
1.3858880559241498,505
1.3867219235871606,504
1.3875557912501717,504
1.3883896589131826,504
1.3892235265761934,503
1.3900573942392043,503
1.3908912619022153,503
1.3917251295652262,503
1.392558997228237,503
1.3933928648912481,503
1.394226732554259,503
1.3950606002172699,502
1.3958944678802807,502
1.3967283355432918,502
1.3975622032063026,502
1.3983960708693135,502
1.3992299385323246,503
1.4000638061953354,505
1.4008976738583463,506
1.4017315415213571,506
1.4025654091843682,506
1.403399276847379,505
1.40423314451039,506
1.405067012173401,505
1.4059008798364119,506
1.4067347474994227,505
1.4075686151624336,505
1.4084024828254447,505
1.4092363504884555,505
1.4100702181514664,504
1.4109040858144775,504
1.4117379534774883,504
1.4125718211404992,504
1.41340568880351,503
1.414239556466521,503
1.415073424129532,504
1.4159072917925428,504
1.416741159455554,505
1.4175750271185648,505
1.4184088947815756,505
1.4192427624445865,505
1.4200766301075975,505
1.4209104977706084,506
1.4217443654336193,506
1.4225782330966303,505
1.4234121007596412,504
1.424245968422652,505
1.4250798360856631,506
1.425913703748674,506
1.4267475714116848,505
1.4275814390746957,504
1.4284153067377068,504
1.4292491744007176,504
1.4300830420637285,503
1.4309169097267396,503
1.4317507773897504,504
1.4325846450527613,505
1.4334185127157721,505
1.4342523803787832,505
1.435086248041794,506
1.435920115704805,505
1.436753983367816,505
1.4375878510308269,505
1.4384217186938377,506
1.4392555863568486,505
1.4400894540198597,504
1.4409233216828705,503
1.4417571893458814,503
1.4425910570088925,505
1.4434249246719033,505
1.4442587923349142,504
1.445092659997925,504
1.445926527660936,504
1.446760395323947,503
1.4475942629869578,504
1.448428130649969,506
1.4492619983129797,505
1.4500958659759906,505
1.4509297336390015,505
1.4517636013020125,506
1.4525974689650234,505
1.4534313366280343,505
1.4542652042910453,506
1.4550990719540562,505
1.455932939617067,506
1.456766807280078,506
1.457600674943089,505
1.4584345426060998,504
1.4592684102691107,504
1.4601022779321218,505
1.4609361455951326,505
1.4617700132581435,505
1.4626038809211543,505
1.4634377485841654,507
1.4642716162471763,507
1.4651054839101871,507
1.4659393515731982,508
1.466773219236209,507
1.46760708689922,507
1.4684409545622308,506
1.4692748222252419,508
1.4701086898882527,508
1.4709425575512636,506
1.4717764252142747,506
1.4726102928772855,506
1.4734441605402964,505
1.4742780282033072,504
1.4751118958663183,504
1.4759457635293292,503
1.47677963119234,502
1.477613498855351,502
1.478447366518362,502
1.4792812341813728,502
1.4801151018443837,502
1.4809489695073947,504
1.4817828371704056,505
1.4826167048334165,506
1.4834505724964275,505
1.4842844401594384,505
1.4851183078224492,506
1.48595217548546,507
1.4867860431484712,508
1.487619910811482,507
1.488453778474493,507
1.489287646137504,508
1.4901215138005148,506
1.4909553814635257,507
1.4917892491265368,506
1.4926231167895476,505
1.4934569844525585,505
1.4942908521155693,504
1.4951247197785804,503
1.4959585874415913,503
1.4967924551046021,503
1.4976263227676132,504
1.498460190430624,504
1.499294058093635,504
1.5001279257566458,504
1.5009617934196569,504
1.5017956610826677,504
1.5026295287456786,505
1.5034633964086896,505
1.5042972640717005,505
1.5051311317347114,504
1.5059649993977222,504
1.5067988670607333,505
1.5076327347237442,504
1.508466602386755,504
1.509300470049766,504
1.510134337712777,504
1.5109682053757878,504
1.5118020730387987,504
1.5126359407018097,504
1.5134698083648206,505
1.5143036760278314,505
1.5151375436908425,505
1.5159714113538534,505
1.5168052790168642,505
1.517639146679875,505
1.5184730143428862,506
1.519306882005897,505
1.5201407496689079,505
1.520974617331919,507
1.5218084849949298,506
1.5226423526579407,506
1.5234762203209515,506
1.5243100879839626,505
1.5251439556469735,505
1.5259778233099843,504
1.5268116909729954,505
1.5276455586360063,505
1.5284794262990171,507
1.529313293962028,506
1.530147161625039,506
1.53098102928805,506
1.5318148969510608,507
1.5326487646140718,509
1.5334826322770827,508
1.5343164999400936,509
1.5351503676031044,509
1.5359842352661155,509
1.5368181029291264,510
1.5376519705921372,510
1.5384858382551483,509
1.5393197059181591,508
1.54015357358117,507
1.5409874412441809,506
1.541821308907192,505
1.5426551765702028,505
1.5434890442332136,504
1.5443229118962247,505
1.5451567795592356,505
1.5459906472222464,505
1.5468245148852573,506
1.5476583825482684,506
1.5484922502112792,506
1.54932611787429,507
1.5501599855373012,509
1.550993853200312,509
1.5518277208633229,509
1.552661588526334,509
1.5534954561893448,510
1.5543293238523557,511
1.5551631915153665,510
1.5559970591783776,511
1.5568309268413885,510
1.5576647945043993,509
1.5584986621674104,509
1.5593325298304213,507
1.5601663974934321,507
1.561000265156443,507
1.561834132819454,507
1.562668000482465,506
1.5635018681454758,506
1.5643357358084868,506
1.5651696034714977,506
1.5660034711345086,506
1.5668373387975194,506
1.5676712064605305,507
1.5685050741235413,507
1.5693389417865522,508
1.5701728094495633,507
1.5710066771125741,507
1.571840544775585,507
1.5726744124385958,508
1.573508280101607,507
1.5743421477646178,506
1.5751760154276286,508
1.5760098830906397,507
1.5768437507536506,507
1.5776776184166614,506
1.5785114860796723,507
1.5793453537426834,508
1.5801792214056942,508
1.581013089068705,508
1.5818469567317162,508
1.582680824394727,509
1.5835146920577379,508
1.5843485597207487,508
1.5851824273837598,508
1.5860162950467707,509
1.5868501627097815,509
1.5876840303727926,508
1.5885178980358035,508
1.5893517656988143,507
1.5901856333618252,506
1.5910195010248362,506
1.591853368687847,505
1.592687236350858,505
1.593521104013869,505
1.59435497167688,505
1.5951888393398908,505
1.5960227070029016,505
1.5968565746659127,506
1.5976904423289235,507
1.5985243099919344,507
1.5993581776549455,508
1.6001920453179563,509
1.6010259129809672,510
1.601859780643978,511
1.6026936483069891,510
1.60352751597,509
1.6043613836330108,508
1.605195251296022,508
1.6060291189590328,507
1.6068629866220436,507
1.6076968542850545,507
1.6085307219480656,507
1.6093645896110764,507
1.6101984572740873,506
1.6110323249370984,505
1.6118661926001092,505
1.61270006026312,506
1.6135339279261312,506
1.614367795589142,506
1.6152016632521529,506
1.6160355309151637,507
1.6168693985781748,507
1.6177032662411857,508
1.6185371339041965,509
1.6193710015672076,509
1.6202048692302184,509
1.6210387368932293,509
1.6218726045562402,508
1.6227064722192512,508
1.623540339882262,507
1.624374207545273,507
1.625208075208284,506
1.6260419428712949,507
1.6268758105343057,506
1.6277096781973166,506
1.6285435458603277,506
1.6293774135233385,506
1.6302112811863494,507
1.6310451488493605,507
1.6318790165123713,508
1.6327128841753822,508
1.633546751838393,509
1.6343806195014041,509
1.635214487164415,509
1.6360483548274258,509
1.636882222490437,509
1.6377160901534478,508
1.6385499578164586,508
1.6393838254794695,508
1.6402176931424806,508
1.6410515608054914,507
1.6418854284685023,506
1.6427192961315134,505
1.6435531637945242,505
1.644387031457535,505
1.645220899120546,505
1.646054766783557,506
1.6468886344465679,505
1.6477225021095787,506
1.6485563697725898,506
1.6493902374356006,507
1.6502241050986115,508
1.6510579727616224,508
1.6518918404246334,508
1.6527257080876443,508
1.6535595757506552,508
1.6543934434136662,508
1.655227311076677,508
1.656061178739688,508
1.6568950464026988,506
1.6577289140657099,506
1.6585627817287207,506
1.6593966493917316,505
1.6602305170547427,505
1.6610643847177535,505
1.6618982523807644,505
1.6627321200437752,505
1.6635659877067863,506
1.6643998553697972,506
1.665233723032808,507
1.6660675906958191,507
1.66690145835883,508
1.6677353260218408,507
1.6685691936848517,508
1.6694030613478628,508
1.6702369290108736,508
1.6710707966738845,508
1.6719046643368956,508
1.6727385319999064,508
1.6735723996629173,507
1.6744062673259281,506
1.6752401349889392,505
1.67607400265195,505
1.676907870314961,505
1.677741737977972,505
1.6785756056409828,505
1.6794094733039937,504
1.6802433409670048,504
1.6810772086300156,504
1.6819110762930265,505
1.6827449439560374,505
1.6835788116190484,506
1.6844126792820593,507
1.6852465469450701,507
1.6860804146080812,507
1.686914282271092,507
1.687748149934103,507
1.6885820175971138,507
1.6894158852601249,506
1.6902497529231357,506
1.6910836205861466,506
1.6919174882491577,505
1.6927513559121685,505
1.6935852235751794,505
1.6944190912381902,506
1.6952529589012013,505
1.6960868265642122,505
1.696920694227223,506
1.697754561890234,506
1.698588429553245,508
1.6994222972162558,508
1.7002561648792667,507
1.7010900325422778,508
1.7019239002052886,507
1.7027577678682995,508
1.7035916355313105,507
1.7044255031943214,507
1.7052593708573323,506
1.7060932385203431,506
1.7069271061833542,506
1.707760973846365,506
1.708594841509376,505
1.709428709172387,505
1.7102625768353978,505
1.7110964444984087,504
1.7119303121614196,504
1.7127641798244306,504
1.7135980474874415,505
1.7144319151504523,505
1.7152657828134634,505
1.7160996504764743,506
1.7169335181394851,506
1.717767385802496,506
1.718601253465507,508
1.719435121128518,509
1.7202689887915288,509
1.7211028564545399,508
1.7219367241175507,507
1.7227705917805616,507
1.7236044594435724,505
1.7244383271065835,505
1.7252721947695944,504
1.7261060624326052,503
1.7269399300956163,504
1.7277737977586272,504
1.728607665421638,504
1.7294415330846489,504
1.73027540074766,505
1.7311092684106708,505
1.7319431360736817,506
1.7327770037366927,506
1.7336108713997036,506
1.7344447390627145,506
1.7352786067257253,507
1.7361124743887364,506
1.7369463420517472,507
1.737780209714758,506
1.7386140773777692,506
1.73944794504078,506
1.740281812703791,505
1.741115680366802,504
1.7419495480298128,505
1.7427834156928237,504
1.7436172833558345,505
1.7444511510188456,504
1.7452850186818565,504
1.7461188863448673,505
1.7469527540078784,504
1.7477866216708893,505
1.7486204893339001,506
1.749454356996911,508
1.750288224659922,508
1.751122092322933,509
1.7519559599859438,508
1.7527898276489549,508
1.7536236953119657,507
1.7544575629749766,506
1.7552914306379874,506
1.7561252983009985,505
1.7569591659640094,505
1.7577930336270202,504
1.7586269012900313,504
1.7594607689530422,503
1.760294636616053,503
1.7611285042790639,502
1.761962371942075,502
1.7627962396050858,503
1.7636301072680967,504
1.7644639749311077,504
1.7652978425941186,505
1.7661317102571295,504
1.7669655779201403,504
1.7677994455831514,505
1.7686333132461622,505
1.769467180909173,504
1.7703010485721842,506
1.771134916235195,507
1.771968783898206,507
1.7728026515612167,507
1.7736365192242278,506
1.7744703868872387,506
1.7753042545502495,507
1.7761381222132606,507
1.7769719898762715,507
1.7778058575392823,506
1.7786397252022932,506
1.7794735928653043,505
1.7803074605283151,505
1.781141328191326,505
1.781975195854337,506
1.782809063517348,507
1.7836429311803588,506
1.7844767988433696,507
1.7853106665063807,507
1.7861445341693916,507
1.7869784018324024,506
1.7878122694954135,506
1.7886461371584244,506
1.7894800048214352,505
1.790313872484446,505
1.7911477401474571,504
1.791981607810468,504
1.7928154754734789,503
1.79364934313649,503
1.7944832107995008,503
1.7953170784625117,504
1.7961509461255225,505
1.7969848137885336,506
1.7978186814515444,506
1.7986525491145553,507
1.7994864167775664,507
1.8003202844405772,508
1.801154152103588,508
1.801988019766599,507
1.80282188742961,507
1.8036557550926209,507
1.8044896227556317,507
1.8053234904186428,506
1.8061573580816537,506
1.8069912257446645,506
1.8078250934076756,506
1.8086589610706865,505
1.8094928287336973,504
1.8103266963967082,505
1.8111605640597193,505
1.8119944317227301,504
1.812828299385741,505
1.813662167048752,506
1.814496034711763,506
1.8153299023747738,507
1.8161637700377846,507
1.8169976377007957,507
1.8178315053638066,508
1.8186653730268174,508
1.8194992406898285,507
1.8203331083528393,507
1.8211669760158502,507
1.822000843678861,507
1.8228347113418721,507
1.823668579004883,506
1.8245024466678939,505
1.825336314330905,505
1.8261701819939158,504
1.8270040496569266,504
1.8278379173199375,504
1.8286717849829486,504
1.8295056526459594,505
1.8303395203089703,505
1.8311733879719814,505
1.8320072556349922,505
1.832841123298003,505
1.833674990961014,505
1.834508858624025,506
1.8353427262870359,507
1.8361765939500467,507
1.8370104616130578,507
1.8378443292760687,506
1.8386781969390795,507
1.8395120646020904,506
1.8403459322651015,505
1.8411797999281123,505
1.8420136675911232,505
1.8428475352541343,506
1.843681402917145,506
1.844515270580156,506
1.8453491382431668,505
1.846183005906178,505
1.8470168735691888,506
1.8478507412321996,505
1.8486846088952107,505
1.8495184765582215,506
1.8503523442212324,506
1.8511862118842433,506
1.8520200795472543,506
1.8528539472102652,506
1.853687814873276,506
1.8545216825362871,506
1.855355550199298,505
1.8561894178623088,505
1.8570232855253197,505
1.8578571531883308,504
1.8586910208513416,504
1.8595248885143525,504
1.8603587561773636,504
1.8611926238403744,505
1.8620264915033853,505
1.8628603591663961,506
1.8636942268294072,506
1.864528094492418,508
1.865361962155429,508
1.86619582981844,508
1.8670296974814509,508
1.8678635651444617,508
1.8686974328074728,508
1.8695313004704837,507
1.8703651681334945,507
1.8711990357965054,506
1.8720329034595165,506
1.8728667711225273,505
1.8737006387855382,505
1.8745345064485492,505
1.87536837411156,504
1.876202241774571,504
1.8770361094375818,504
1.877869977100593,504
1.8787038447636037,504
1.8795377124266146,504
1.8803715800896257,505
1.8812054477526365,504
1.8820393154156474,504
1.8828731830786583,506
1.8837070507416693,505
1.8845409184046802,506
1.885374786067691,506
1.8862086537307021,507
1.887042521393713,507
1.8878763890567238,507
1.8887102567197347,507
1.8895441243827458,506
1.8903779920457566,505
1.8912118597087675,505
1.8920457273717786,504
1.8928795950347894,504
1.8937134626978003,504
1.8945473303608111,505
1.8953811980238222,505
1.896215065686833,505
1.897048933349844,506
1.897882801012855,505
1.8987166686758659,505
1.8995505363388767,506
1.9003844040018876,506
1.9012182716648987,506
1.9020521393279095,506
1.9028860069909204,507
1.9037198746539314,507
1.9045537423169423,507
1.9053876099799532,507
1.906221477642964,507
1.907055345305975,506
1.907889212968986,506
1.9087230806319968,506
1.9095569482950079,506
1.9103908159580187,505
1.9112246836210296,505
1.9120585512840405,505
1.9128924189470515,505
1.9137262866100624,505
1.9145601542730732,505
1.9153940219360843,506
1.9162278895990952,506
1.917061757262106,506
1.917895624925117,507
1.918729492588128,507
1.9195633602511388,507
1.9203972279141497,506
1.9212310955771608,506
1.9220649632401716,505
1.9228988309031825,505
1.9237326985661933,505
1.9245665662292044,505
1.9254004338922153,505
1.9262343015552261,504
1.9270681692182372,504
1.927902036881248,504
1.928735904544259,505
1.92956977220727,505
1.9304036398702809,505
1.9312375075332917,506
1.9320713751963026,506
1.9329052428593136,508
1.9337391105223245,507
1.9345729781853354,508
1.9354068458483464,508
1.9362407135113573,508
1.9370745811743681,507
1.937908448837379,507
1.93874231650039,506
1.939576184163401,505
1.9404100518264118,506
1.9412439194894229,505
1.9420777871524337,505
1.9429116548154446,504
1.9437455224784554,504
1.9445793901414665,504
1.9454132578044774,503
1.9462471254674882,504
1.9470809931304993,504
1.9479148607935102,505
1.948748728456521,505
1.9495825961195319,506
1.950416463782543,506
1.9512503314455538,508
1.9520841991085647,508
1.9529180667715758,508
1.9537519344345866,507
1.9545858020975975,508
1.9554196697606083,507
1.9562535374236194,506
1.9570874050866303,505
1.9579212727496411,505
1.9587551404126522,505
1.959589008075663,505
1.960422875738674,506
1.9612567434016848,505
1.9620906110646958,506
1.9629244787277067,506
1.9637583463907176,505
1.9645922140537286,506
1.9654260817167395,505
1.9662599493797503,505
1.9670938170427612,506
1.9679276847057723,507
1.9687615523687831,506
1.969595420031794,507
1.970429287694805,506
1.971263155357816,506
1.9720970230208268,506
1.9729308906838376,506
1.9737647583468487,505
1.9745986260098596,506
1.9754324936728704,505
1.9762663613358815,505
1.9771002289988924,505
1.9779340966619032,505
1.978767964324914,505
1.9796018319879252,505
1.980435699650936,507
1.9812695673139469,507
1.982103434976958,507
1.9829373026399688,507
1.9837711703029797,508
1.9846050379659905,508
1.9854389056290016,507
1.9862727732920125,507
1.9871066409550233,507
1.9879405086180344,507
1.9887743762810453,507
1.989608243944056,506
1.990442111607067,506
1.991275979270078,504
1.992109846933089,504
1.9929437145960998,504
1.9937775822591108,505
1.9946114499221217,504
1.9954453175851325,504
1.9962791852481436,505
1.9971130529111545,505
1.9979469205741653,506
1.9987807882371762,506
1.9996146559001873,506
2.000448523563198,506
2.001282391226209,507
2.00211625888922,507
2.0029501265522307,508
2.003783994215242,507
2.004617861878253,507
2.0054517295412637,509
2.0062855972042746,509
2.0071194648672854,507
2.0079533325302963,507
2.008787200193307,506
2.0096210678563184,507
2.0104549355193293,506
2.01128880318234,505
2.012122670845351,505
2.012956538508362,505
2.0137904061713727,505
2.0146242738343836,506
2.015458141497395,507
2.0162920091604057,507
2.0171258768234166,508
2.0179597444864275,507
2.0187936121494383,507
2.019627479812449,507
2.02046134747546,506
2.0212952151384713,506
2.022129082801482,506
2.022962950464493,507
2.023796818127504,505
2.0246306857905148,505
2.0254645534535256,505
2.0262984211165365,505
2.0271322887795478,505
2.0279661564425586,504
2.0288000241055695,504
2.0296338917685803,504
2.030467759431591,505
2.031301627094602,506
2.032135494757613,505
2.032969362420624,505
2.033803230083635,505
2.034637097746646,505
2.0354709654096568,506
2.0363048330726676,505
2.0371387007356785,505
2.0379725683986893,505
2.0388064360617006,505
2.0396403037247115,504
2.0404741713877224,504
2.041308039050733,503
2.042141906713744,503
2.042975774376755,503
2.043809642039766,503
2.044643509702777,504
2.045477377365788,504
2.046311245028799,505
2.0471451126918097,505
2.0479789803548205,506
2.0488128480178314,506
2.0496467156808422,505
2.0504805833438535,505
2.0513144510068644,504
2.0521483186698752,505
2.052982186332886,504
2.053816053995897,503
2.054649921658908,502
2.0554837893219187,501
2.05631765698493,500
2.057151524647941,500
2.0579853923109517,500
2.0588192599739625,500
2.0596531276369734,500
2.0604869952999842,499
2.061320862962995,499
2.0621547306260064,499
2.0629885982890173,500
2.063822465952028,500
2.064656333615039,500
2.06549020127805,501
2.0663240689410607,502
2.0671579366040715,503
2.067991804267083,503
2.0688256719300937,503
2.0696595395931046,505
2.0704934072561154,504
2.0713272749191263,504
2.072161142582137,503
2.072995010245148,502
2.0738288779081593,502
2.07466274557117,502
2.075496613234181,501
2.076330480897192,501
2.0771643485602027,501
2.0779982162232136,501
2.0788320838862244,500
2.0796659515492357,500
2.0804998192122466,501
2.0813336868752574,501
2.0821675545382683,501
2.083001422201279,501
2.08383528986429,502
2.084669157527301,501
2.085503025190312,501
2.086336892853323,502
2.087170760516334,503
2.0880046281793447,503
2.0888384958423556,503
2.0896723635053664,502
2.0905062311683777,502
2.0913400988313886,503
2.0921739664943995,503
2.0930078341574103,502
2.093841701820421,501
2.094675569483432,501
2.095509437146443,502
2.096343304809454,502
2.097177172472465,502
2.098011040135476,502
2.0988449077984868,502
2.0996787754614976,503
2.1005126431245085,502
2.1013465107875193,503
2.1021803784505306,503
2.1030142461135415,503
2.1038481137765523,503
2.104681981439563,502
2.105515849102574,503
2.106349716765585,501
2.1071835844285958,502
2.108017452091607,502
2.108851319754618,501
2.109685187417629,502
2.1105190550806396,501
2.1113529227436505,501
2.1121867904066614,501
2.113020658069672,503
2.1138545257326835,502
2.1146883933956944,503
2.1155222610587052,502
2.116356128721716,503
2.117189996384727,505
2.118023864047738,504
2.1188577317107486,504
2.11969159937376,503
2.120525467036771,503
2.1213593346997817,503
2.1221932023627925,502
2.1230270700258034,502
2.1238609376888142,501
2.124694805351825,501
2.1255286730148364,500
2.1263625406778472,500
2.127196408340858,500
2.128030276003869,500
2.12886414366688,500
2.1296980113298907,500
2.1305318789929015,501
2.131365746655913,501
2.1321996143189237,502
2.1330334819819345,503
2.1338673496449454,504
2.1347012173079563,506
2.135535084970967,506
2.136368952633978,506
2.1372028202969893,505
2.13803668796,505
2.138870555623011,505
2.139704423286022,504
2.1405382909490327,504
2.1413721586120436,503
2.1422060262750544,503
2.1430398939380657,502
2.1438737616010766,501
2.1447076292640874,502
2.1455414969270983,502
2.146375364590109,502
2.14720923225312,502
2.148043099916131,502
2.148876967579142,503
2.149710835242153,503
2.150544702905164,503
2.1513785705681747,505
2.1522124382311856,504
2.1530463058941964,504
2.1538801735572073,504
2.1547140412202186,503
2.1555479088832294,504
2.1563817765462403,505
2.157215644209251,504
2.158049511872262,503
2.158883379535273,503
2.1597172471982837,503
2.160551114861295,503
2.161384982524306,502
2.1622188501873167,503
2.1630527178503276,503
2.1638865855133385,503
2.1647204531763493,503
2.16555432083936,503
2.1663881885023715,504
2.1672220561653823,504
2.168055923828393,505
2.168889791491404,504
2.169723659154415,504
2.1705575268174258,503
2.1713913944804366,503
2.172225262143448,503
2.1730591298064588,503
2.1738929974694696,503
2.1747268651324805,502
2.1755607327954913,502
2.176394600458502,501
2.177228468121513,502
2.1780623357845244,503
2.178896203447535,502
2.179730071110546,502
2.180563938773557,503
2.1813978064365678,504
2.1822316740995786,504
2.1830655417625895,503
2.183899409425601,504
2.1847332770886116,504
2.1855671447516225,504
2.1864010124146334,504
2.187234880077644,504
2.188068747740655,503
2.188902615403666,503
2.1897364830666772,503
2.190570350729688,503
2.191404218392699,502
2.19223808605571,502
2.1930719537187207,502
2.1939058213817315,502
2.1947396890447424,502
2.1955735567077537,502
2.1964074243707645,502
2.1972412920337754,502
2.1980751596967862,503
2.198909027359797,505
2.199742895022808,505
2.200576762685819,505
2.20141063034883,505
2.202244498011841,506
2.203078365674852,506
2.2039122333378627,505
2.2047461010008735,504
2.2055799686638844,504
2.2064138363268953,503
2.2072477039899066,503
2.2080815716529174,502
2.2089154393159283,502
2.209749306978939,502
2.21058317464195,502
2.211417042304961,502
2.2122509099679717,501
2.213084777630983,502
2.213918645293994,502
2.2147525129570047,502
2.2155863806200156,504
2.2164202482830264,504
2.2172541159460373,505
2.2180879836090486,505
2.2189218512720594,505
2.2197557189350703,504
2.220589586598081,504
2.221423454261092,504
2.222257321924103,503
2.2230911895871137,503
2.223925057250125,503
2.224758924913136,503
2.2255927925761467,502
2.2264266602391576,502
2.2272605279021684,502
2.2280943955651793,502
2.22892826322819,501
2.2297621308912015,501
2.2305959985542123,501
2.231429866217223,502
2.232263733880234,503
2.233097601543245,503
2.2339314692062557,503
2.2347653368692666,503
2.235599204532278,504
2.2364330721952888,504
2.2372669398582996,504
2.2381008075213105,504
2.2389346751843213,504
2.239768542847332,503
2.240602410510343,502
2.2414362781733543,502
2.242270145836365,502
2.243104013499376,501
2.243937881162387,502
2.2447717488253978,502
2.2456056164884086,502
2.2464394841514195,502
2.2472733518144308,502
2.2481072194774416,503
2.2489410871404525,503
2.2497749548034633,503
2.250608822466474,503
2.251442690129485,504
2.252276557792496,503
2.253110425455507,503
2.253944293118518,504
2.254778160781529,504
2.25561202844454,504
2.2564458961075506,503
2.2572797637705615,503
2.2581136314335724,503
2.2589474990965837,502
2.2597813667595945,502
2.2606152344226054,502
2.2614491020856162,502
2.262282969748627,502
2.263116837411638,503
2.263950705074649,504
2.26478457273766,504
2.265618440400671,504
2.266452308063682,505
2.2672861757266927,506
2.2681200433897035,506
2.2689539110527144,506
2.2697877787157252,506
2.2706216463787365,506
2.2714555140417474,506
2.2722893817047582,505
2.273123249367769,504
2.27395711703078,504
2.274790984693791,503
2.2756248523568017,503
2.276458720019813,503
2.277292587682824,503
2.2781264553458347,503
2.2789603230088455,503
2.2797941906718564,504
2.2806280583348673,505
2.281461925997878,505
2.2822957936608894,506
2.2831296613239003,505
2.283963528986911,506
2.284797396649922,505
2.285631264312933,505
2.2864651319759437,505
2.2872989996389546,504
2.288132867301966,504
2.2889667349649767,504
2.2898006026279876,503
2.2906344702909984,503
2.2914683379540093,502
2.29230220561702,503
2.293136073280031,502
2.2939699409430423,502
2.294803808606053,502
2.295637676269064,504
2.296471543932075,504
2.2973054115950857,504
2.2981392792580966,505
2.2989731469211074,506
2.2998070145841187,507
2.3006408822471296,507
2.3014747499101404,507
2.3023086175731513,507
2.303142485236162,507
2.303976352899173,506
2.304810220562184,505
2.305644088225195,506
2.306477955888206,505
2.307311823551217,504
2.3081456912142277,504
2.3089795588772386,503
2.3098134265402495,504
2.3106472942032603,503
2.3114811618662716,504
2.3123150295292825,504
2.3131488971922933,505
2.313982764855304,505
2.314816632518315,505
2.315650500181326,505
2.3164843678443368,505
2.317318235507348,505
2.318152103170359,505
2.3189859708333698,505
2.3198198384963806,505
2.3206537061593915,505
2.3214875738224023,505
2.322321441485413,504
2.3231553091484245,503
2.3239891768114354,504
2.324823044474446,504
2.325656912137457,504
2.326490779800468,503
2.327324647463479,503
2.3281585151264896,503
2.328992382789501,503
2.329826250452512,503
2.3306601181155226,504
2.3314939857785335,505
2.3323278534415444,506
2.333161721104555,507
2.333995588767566,507
2.3348294564305774,508
2.3356633240935882,508
2.336497191756599,508
2.33733105941961,508
2.338164927082621,507
2.3389987947456317,507
2.3398326624086425,506
2.340666530071654,506
2.3415003977346647,505
2.3423342653976755,506
2.3431681330606864,505
2.3440020007236972,505
2.344835868386708,504
2.3456697360497194,505
2.3465036037127303,505
2.347337471375741,505
2.348171339038752,505
2.349005206701763,505
2.3498390743647737,505
2.3506729420277845,506
2.351506809690796,505
2.3523406773538067,505
2.3531745450168176,506
2.3540084126798284,506
2.3548422803428393,505
2.35567614800585,505
2.356510015668861,505
2.3573438833318723,505
2.358177750994883,504
2.359011618657894,504
2.359845486320905,504
2.3606793539839157,504
2.3615132216469266,505
2.3623470893099374,504
2.3631809569729487,505
2.3640148246359596,506
2.3648486922989704,506
2.3656825599619813,507
2.366516427624992,507
2.367350295288003,508
2.368184162951014,508
2.369018030614025,508
2.369851898277036,508
2.370685765940047,508
2.3715196336030577,507
2.3723535012660686,506
2.3731873689290794,506
2.3740212365920903,505
2.3748551042551016,505
2.3756889719181125,504
2.3765228395811233,504
2.377356707244134,504
2.378190574907145,505
2.379024442570156,505
2.3798583102331667,505
2.380692177896178,505
2.381526045559189,506
2.3823599132221998,507
2.3831937808852106,507
2.3840276485482215,507
2.3848615162112323,507
2.385695383874243,509
2.3865292515372545,508
2.3873631192002653,508
2.388196986863276,508
2.389030854526287,507
2.389864722189298,507
2.3906985898523088,507
2.3915324575153196,506
2.392366325178331,505
2.3932001928413418,506
2.3940340605043526,506
2.3948679281673635,506
2.3957017958303743,506
2.396535663493385,507
2.397369531156396,507
2.3982033988194074,507
2.399037266482418,507
2.399871134145429,508
2.40070500180844,509
2.401538869471451,508
2.4023727371344616,508
2.4032066047974725,508
2.404040472460484,507
2.4048743401234947,507
2.4057082077865055,507
2.4065420754495164,506
2.4073759431125272,506
2.408209810775538,506
2.409043678438549,506
2.4098775461015602,506
2.410711413764571,507
2.411545281427582,507
2.412379149090593,506
2.4132130167536037,506
2.4140468844166145,507
2.4148807520796254,508
2.4157146197426367,508
2.4165484874056475,508
2.4173823550686584,507
2.4182162227316693,508
2.41905009039468,509
2.419883958057691,508
2.420717825720702,508
2.421551693383713,507
2.422385561046724,507
2.423219428709735,506
2.4240532963727457,505
2.4248871640357565,506
2.4257210316987674,507
2.4265548993617783,506
2.4273887670247896,506
2.4282226346878004,506
2.4290565023508113,508
2.429890370013822,507
2.430724237676833,507
2.431558105339844,508
2.4323919730028547,509
2.433225840665866,509
2.434059708328877,509
2.4348935759918877,508
2.4357274436548986,508
2.4365613113179094,509
2.4373951789809203,508
2.438229046643931,508
2.4390629143069424,507
2.4398967819699533,507
2.440730649632964,506
2.441564517295975,505
2.442398384958986,505
2.4432322526219967,505
2.4440661202850076,505
2.444899987948019,505
2.4457338556110297,504
2.4465677232740406,505
2.4474015909370515,505
2.4482354586000623,506
2.449069326263073,506
2.449903193926084,507
2.4507370615890953,507
2.451570929252106,507
2.452404796915117,508
2.453238664578128,508
2.4540725322411387,509
2.4549063999041496,509
2.4557402675671605,509
2.4565741352301718,508
2.4574080028931826,508
2.4582418705561935,509
2.4590757382192043,508
2.459909605882215,508
2.460743473545226,508
2.461577341208237,509
2.462411208871248,510
2.463245076534259,510
2.46407894419727,512
2.4649128118602808,514
2.4657466795232916,515
2.4665805471863025,516
2.467414414849314,518
2.4682482825123246,518
2.4690821501753355,519
2.4699160178383464,520
2.470749885501357,520
2.471583753164368,520
2.472417620827379,521
2.4732514884903902,522
2.474085356153401,522
2.474919223816412,523
2.475753091479423,524
2.4765869591424337,526
2.4774208268054445,527
2.4782546944684554,528
2.4790885621314667,529
2.4799224297944775,531
2.4807562974574884,532
2.4815901651204992,533
2.48242403278351,534
2.483257900446521,537
2.484091768109532,538
2.484925635772543,539
2.485759503435554,540
2.486593371098565,541
2.4874272387615757,542
2.4882611064245865,543
2.4890949740875974,543
2.4899288417506082,543
2.4907627094136195,545
2.4915965770766304,545
2.4924304447396413,545
2.493264312402652,546
2.494098180065663,547
2.494932047728674,548
2.4957659153916847,549
2.496599783054696,551
2.497433650717707,552
2.4982675183807177,553
2.4991013860437286,554
2.4999352537067394,555
2.5007691213697503,558
2.501602989032761,559
2.5024368566957724,560
2.5032707243587833,560
2.504104592021794,560
2.504938459684805,561
2.505772327347816,560
2.5066061950108267,561
2.5074400626738376,561
2.508273930336849,562
2.5091077979998597,563
2.5099416656628706,563
2.5107755333258814,563
2.5116094009888923,563
2.512443268651903,564
2.513277136314914,565
2.5141110039779253,566
2.514944871640936,567
2.515778739303947,568
2.516612606966958,569
2.5174464746299687,570
2.5182803422929796,570
2.5191142099559904,570
2.5199480776190017,570
2.5207819452820126,569
2.5216158129450235,570
2.5224496806080343,571
2.523283548271045,572
2.524117415934056,573
2.524951283597067,573
2.525785151260078,573
2.526619018923089,573
2.5274528865861,573
2.5282867542491108,574
2.5291206219121216,574
2.5299544895751325,576
2.5307883572381433,577
2.5316222249011546,578
2.5324560925641655,578
2.5332899602271763,578
2.534123827890187,579
2.534957695553198,578
2.535791563216209,579
2.5366254308792198,578
2.537459298542231,578
2.538293166205242,578
2.539127033868253,578
2.5399609015312636,577
2.5407947691942745,578
2.5416286368572854,578
2.542462504520296,579
2.5432963721833075,579
2.5441302398463184,580
2.544964107509329,582
2.54579797517234,582
2.546631842835351,581
2.547465710498362,581
2.5482995781613726,581
2.549133445824384,582
2.549967313487395,583
2.5508011811504057,583
2.5516350488134165,584
2.5524689164764274,584
2.5533027841394382,584
2.554136651802449,584
2.5549705194654604,584
2.5558043871284712,585
2.556638254791482,584
2.557472122454493,583
2.558305990117504,582
2.5591398577805147,581
2.5599737254435255,580
2.560807593106537,580
2.5616414607695477,581
2.5624753284325585,582
2.5633091960955694,582
2.5641430637585803,581
2.564976931421591,580
2.565810799084602,580
2.5666446667476133,580
2.567478534410624,581
2.568312402073635,581
2.569146269736646,579
2.5699801373996567,578
2.5708140050626676,577
2.5716478727256784,576
2.5724817403886897,578
2.5733156080517006,578
2.5741494757147114,577
2.5749833433777223,575
2.575817211040733,575
2.576651078703744,574
2.577484946366755,574
2.578318814029766,573
2.579152681692777,572
2.579986549355788,572
2.5808204170187987,571
2.5816542846818096,571
2.5824881523448204,571
2.5833220200078313,572
2.5841558876708426,571
2.5849897553338534,571
2.5858236229968643,571
2.586657490659875,570
2.587491358322886,570
2.588325225985897,569
2.5891590936489077,568
2.589992961311919,566
2.59082682897493,565
2.5916606966379407,565
2.5924945643009516,564
2.5933284319639625,563
2.5941622996269733,564
2.5949961672899846,564
2.5958300349529955,564
2.5966639026160063,564
2.597497770279017,564
2.598331637942028,564
2.599165505605039,565
2.5999993732680498,565
2.600833240931061,564
2.601667108594072,564
2.6025009762570828,564
2.6033348439200936,563
2.6041687115831045,563
2.6050025792461153,562
2.605836446909126,561
2.6066703145721375,559
2.6075041822351483,560
2.608338049898159,559
2.60917191756117,558
2.610005785224181,558
2.6108396528871918,557
2.6116735205502026,557
2.612507388213214,557
2.613341255876225,557
2.6141751235392356,557
2.6150089912022465,557
2.6158428588652574,557
2.616676726528268,558
2.617510594191279,558
2.6183444618542904,558
2.6191783295173012,557
2.620012197180312,558
2.620846064843323,559
2.621679932506334,558
2.6225138001693447,556
2.6233476678323555,555
2.624181535495367,554
2.6250154031583777,554
2.6258492708213885,553
2.6266831384843994,553
2.6275170061474102,553
2.628350873810421,553
2.629184741473432,552
2.6300186091364433,552
2.630852476799454,552
2.631686344462465,552
2.632520212125476,552
2.6333540797884867,552
2.6341879474514975,552
2.6350218151145084,552
2.6358556827775197,552
2.6366895504405305,552
2.6375234181035414,552
2.6383572857665523,552
2.639191153429563,551
2.640025021092574,550
2.640858888755585,549
2.641692756418596,549
2.642526624081607,549
2.643360491744618,548
2.6441943594076287,547
2.6450282270706396,547
2.6458620947336504,547
2.6466959623966613,547
2.6475298300596726,547
2.6483636977226834,547
2.6491975653856943,548
2.650031433048705,547
2.650865300711716,547
2.651699168374727,547
2.6525330360377377,548
2.653366903700749,547
2.65420077136376,546
2.6550346390267707,546
2.6558685066897816,544
2.6567023743527924,544
2.6575362420158033,544
2.658370109678814,543
2.6592039773418255,544
2.6600378450048363,545
2.660871712667847,544
2.661705580330858,543
2.662539447993869,543
2.6633733156568797,543
2.6642071833198906,544
2.665041050982902,544
2.6658749186459128,544
2.6667087863089236,544
2.6675426539719345,543
2.6683765216349453,543
2.669210389297956,543
2.670044256960967,543
2.6708781246239783,544
2.671711992286989,544
2.67254585995,544
2.673379727613011,544
2.6742135952760218,543
2.6750474629390326,543
2.6758813306020435,542
2.6767151982650548,542
2.6775490659280656,541
2.6783829335910765,541
2.6792168012540873,541
2.680050668917098,542
2.680884536580109,543
2.68171840424312,545
2.682552271906131,545
2.683386139569142,546
2.684220007232153,546
2.685053874895164,547
2.6858877425581746,548
2.6867216102211855,548
2.6875554778841964,548
2.6883893455472077,548
2.6892232132102185,548
2.6900570808732294,548
2.6908909485362402,549
2.691724816199251,550
2.692558683862262,551
2.693392551525273,552
2.694226419188284,552
2.695060286851295,553
2.695894154514306,555
2.6967280221773167,556
2.6975618898403275,557
2.6983957575033384,557
2.6992296251663492,558
2.7000634928293605,559
2.7008973604923714,560
2.7017312281553822,561
2.702565095818393,562
2.703398963481404,562
2.704232831144415,562
2.7050666988074257,562
2.705900566470437,562
2.706734434133448,562
2.7075683017964587,562
2.7084021694594695,561
2.7092360371224804,560
2.7100699047854913,560
2.710903772448502,560
2.7117376401115134,560
2.7125715077745243,561
2.713405375437535,561
2.714239243100546,562
2.715073110763557,562
2.7159069784265677,562
2.7167408460895786,562
2.71757471375259,563
2.7184085814156007,564
2.7192424490786116,563
2.7200763167416224,563
2.7209101844046333,562
2.721744052067644,561
2.7225779197306554,561
2.7234117873936663,561
2.724245655056677,562
2.725079522719688,562
2.725913390382699,561
2.7267472580457097,560
2.7275811257087206,558
2.728414993371732,558
2.7292488610347427,557
2.7300827286977536,557
2.7309165963607644,557
2.7317504640237753,557
2.732584331686786,557
2.733418199349797,557
2.7342520670128083,558
2.735085934675819,558
2.73591980233883,558
2.736753670001841,556
2.7375875376648517,556
2.7384214053278626,556
2.7392552729908735,556
2.7400891406538848,555
2.7409230083168956,554
2.7417568759799065,553
2.7425907436429173,552
2.743424611305928,551
2.744258478968939,551
2.74509234663195,551
2.745926214294961,553
2.746760081957972,553
2.747593949620983,553
2.7484278172839938,553
2.7492616849470046,553
2.7500955526100155,554
2.7509294202730263,554
2.7517632879360376,554
2.7525971555990485,553
2.7534310232620594,552
2.75426489092507,551
2.755098758588081,551
2.755932626251092,550
2.756766493914103,550
2.757600361577114,550
2.758434229240125,549
2.759268096903136,548
2.7601019645661466,547
2.7609358322291575,548
2.7617696998921684,547
2.762603567555179,547
2.7634374352181905,548
2.7642713028812014,548
2.7651051705442122,548
2.765939038207223,547
2.766772905870234,549
2.767606773533245,549
2.7684406411962557,549
2.769274508859267,548
2.770108376522278,548
2.7709422441852887,548
2.7717761118482995,548
2.7726099795113104,548
2.7734438471743212,547
2.774277714837332,547
2.7751115825003434,546
2.7759454501633543,546
2.776779317826365,546
2.777613185489376,545
2.778447053152387,546
2.7792809208153977,546
2.7801147884784085,545
2.78094865614142,546
2.7817825238044307,546
2.7826163914674416,547
2.7834502591304524,547
2.7842841267934633,547
2.785117994456474,547
2.785951862119485,546
2.7867857297824963,547
2.787619597445507,546
2.788453465108518,547
2.789287332771529,548
2.7901212004345397,546
2.7909550680975506,546
2.7917889357605614,545
2.7926228034235727,544
2.7934566710865836,544
2.7942905387495944,544
2.7951244064126053,543
2.795958274075616,542
2.796792141738627,542
2.797626009401638,543
2.798459877064649,544
2.79929374472766,545
2.800127612390671,545
2.8009614800536817,545
2.8017953477166926,544
2.8026292153797034,544
2.8034630830427143,544
2.8042969507057256,545
2.8051308183687365,546
2.8059646860317473,544
2.806798553694758,543
2.807632421357769,543
2.80846628902078,543
2.8093001566837907,543
2.810134024346802,542
2.810967892009813,543
2.8118017596728238,543
2.8126356273358346,544
2.8134694949988455,545
2.8143033626618563,545
2.815137230324867,545
2.8159710979878785,545
2.8168049656508893,546
2.8176388333139,545
2.818472700976911,544
2.819306568639922,544
2.8201404363029328,543
2.8209743039659436,543
2.821808171628955,543
2.8226420392919658,543
2.8234759069549766,543
2.8243097746179875,543
2.8251436422809983,543
2.825977509944009,544
2.82681137760702,546
2.8276452452700314,546
2.828479112933042,547
2.829312980596053,547
2.830146848259064,547
2.830980715922075,548
2.8318145835850856,548
2.8326484512480965,549
2.833482318911108,550
2.8343161865741187,550
2.8351500542371295,551
2.8359839219001404,551
2.8368177895631512,552
2.837651657226162,552
2.838485524889173,551
2.8393193925521842,551
2.840153260215195,550
2.840987127878206,549
2.841820995541217,548
2.8426548632042277,547
2.8434887308672385,547
2.8443225985302494,546
2.8451564661932607,546
2.8459903338562715,546
2.8468242015192824,546
2.8476580691822933,547
2.848491936845304,548
2.849325804508315,548
2.8501596721713263,548
2.850993539834337,547
2.851827407497348,548
2.852661275160359,548
2.8534951428233697,548
2.8543290104863805,547
2.8551628781493914,547
2.8559967458124027,545
2.8568306134754136,544
2.8576644811384244,544
2.8584983488014353,544
2.859332216464446,543
2.860166084127457,543
2.860999951790468,543
2.861833819453479,543
2.86266768711649,544
2.863501554779501,544
2.8643354224425117,544
2.8651692901055226,545
2.8660031577685334,545
2.8668370254315443,545
2.8676708930945556,546
2.8685047607575664,545
2.8693386284205773,546
2.870172496083588,546
2.871006363746599,545
2.87184023140961,545
2.8726740990726207,544
2.873507966735632,544
2.874341834398643,543
2.8751757020616537,543
2.8760095697246646,543
2.8768434373876755,542
2.8776773050506863,543
2.878511172713697,542
2.8793450403767085,542
2.8801789080397193,543
2.88101277570273,543
2.881846643365741,543
2.882680511028752,542
2.8835143786917627,542
2.8843482463547736,543
2.885182114017785,543
2.8860159816807958,543
2.8868498493438066,543
2.8876837170068175,542
2.8885175846698283,542
2.889351452332839,540
2.89018531999585,540
2.8910191876588613,540
2.891853055321872,540
2.892686922984883,539
2.893520790647894,539
2.8943546583109048,539
2.8951885259739156,539
2.8960223936369265,539
2.896856261299938,539
2.8976901289629486,540
2.8985239966259595,541
2.8993578642889704,541
2.900191731951981,542
2.901025599614992,542
2.901859467278003,544
2.9026933349410142,543
2.903527202604025,541
2.904361070267036,541
2.905194937930047,541
2.9060288055930577,540
2.9068626732560685,539
2.9076965409190794,539
2.9085304085820907,539
2.9093642762451015,538
2.9101981439081124,538
2.9110320115711232,538
2.911865879234134,537
2.912699746897145,538
2.913533614560156,538
2.914367482223167,538
2.915201349886178,538
2.916035217549189,538
2.9168690852121997,538
2.9177029528752105,539
2.9185368205382214,539
2.9193706882012322,538
2.9202045558642435,538
2.9210384235272544,537
2.9218722911902653,537
2.922706158853276,537
2.923540026516287,537
2.924373894179298,536
2.9252077618423087,535
2.92604162950532,534
2.926875497168331,535
2.9277093648313417,535
2.9285432324943526,535
2.9293771001573634,535
2.9302109678203743,536
2.931044835483385,536
2.9318787031463964,537
2.9327125708094073,537
2.933546438472418,538
2.934380306135429,539
2.93521417379844,539
2.9360480414614507,538
2.9368819091244616,537
2.937715776787473,537
2.9385496444504837,536
2.9393835121134946,536
2.9402173797765054,535
2.9410512474395163,535
2.941885115102527,534
2.942718982765538,533
2.9435528504285493,533
2.94438671809156,534
2.945220585754571,534
2.946054453417582,534
2.9468883210805927,534
2.9477221887436036,534
2.9485560564066144,534
2.9493899240696257,535
2.9502237917326366,535
2.9510576593956475,535
2.9518915270586583,536
2.952725394721669,535
2.95355926238468,535
2.954393130047691,535
2.955226997710702,534
2.956060865373713,535
2.956894733036724,535
2.9577286006997348,534
2.9585624683627456,533
2.9593963360257565,534
2.9602302036887673,533
2.9610640713517786,532
2.9618979390147895,533
2.9627318066778003,533
2.963565674340811,533
2.964399542003822,533
2.965233409666833,533
2.9660672773298438,535
2.966901144992855,535
2.967735012655866,535
2.968568880318877,535
2.9694027479818876,535
2.9702366156448985,535
2.9710704833079093,535
2.97190435097092,534
2.9727382186339315,534
2.9735720862969424,533
2.974405953959953,532
2.975239821622964,531
2.976073689285975,531
2.976907556948986,532
2.977741424611997,531
2.978575292275008,532
2.979409159938019,531
2.9802430276010297,532
2.9810768952640405,531
2.9819107629270514,532
2.9827446305900622,533
2.9835784982530735,534
2.9844123659160844,534
2.9852462335790952,534
2.986080101242106,533
2.986913968905117,532
2.987747836568128,532
2.9885817042311387,531
2.98941557189415,531
2.990249439557161,530
2.9910833072201717,532
2.9919171748831825,532
2.9927510425461934,530
2.9935849102092043,530
2.994418777872215,530
2.9952526455352264,530
2.9960865131982373,530
2.996920380861248,531
2.997754248524259,532
2.99858811618727,533
2.9994219838502807,533
3.0002558515132915,532
3.001089719176303,533
3.0019235868393137,533
3.0027574545023246,533
3.0035913221653354,533
3.0044251898283463,533
3.005259057491357,532
3.006092925154368,531
3.0069267928173793,530
3.00776066048039,530
3.008594528143401,530
3.009428395806412,530
3.0102622634694227,529
3.0110961311324336,529
3.0119299987954444,529
3.0127638664584557,530
3.0135977341214666,530
3.0144316017844774,531
3.0152654694474883,532
3.016099337110499,531
3.01693320477351,531
3.017767072436521,531
3.018600940099532,531
3.019434807762543,531
3.020268675425554,532
3.0211025430885647,531
3.0219364107515756,531
3.0227702784145865,531
3.0236041460775973,530
3.0244380137406086,530
3.0252718814036195,529
3.0261057490666303,529
3.026939616729641,529
3.027773484392652,529
3.028607352055663,528
3.0294412197186738,529
3.030275087381685,530
3.031108955044696,530
3.0319428227077068,530
3.0327766903707176,531
3.0336105580337285,531
3.0344444256967393,531
3.03527829335975,531
3.0361121610227615,531
3.0369460286857723,531
3.037779896348783,531
3.038613764011794,531
3.039447631674805,529
3.0402814993378158,529
3.0411153670008266,529
3.041949234663838,529
3.042783102326849,528
3.0436169699898596,528
3.0444508376528705,528
3.0452847053158814,528
3.046118572978892,528
3.046952440641903,529
3.0477863083049144,529
3.0486201759679252,529
3.049454043630936,529
3.050287911293947,530
3.051121778956958,530
3.0519556466199687,531
3.0527895142829795,532
3.053623381945991,531
3.0544572496090017,530
3.0552911172720125,530
3.0561249849350234,529
3.0569588525980342,528
3.057792720261045,527
3.058626587924056,526
3.0594604555870673,525
3.060294323250078,525
3.061128190913089,524
3.0619620585761,524
3.0627959262391107,523
3.0636297939021215,523
3.0644636615651324,523
3.0652975292281437,522
3.0661313968911545,521
3.0669652645541654,521
3.0677991322171763,520
3.068632999880187,519
3.069466867543198,518
3.070300735206209,517
3.07113460286922,516
3.071968470532231,514
3.072802338195242,513
3.0736362058582527,511
3.0744700735212636,510
3.0753039411842744,508
3.0761378088472853,507
3.0769716765102966,506
3.0778055441733074,506
3.0786394118363183,505
3.079473279499329,505
3.08030714716234,505
3.081141014825351,504
3.0819748824883617,504
3.082808750151373,503
3.083642617814384,503
3.0844764854773947,502
3.0853103531404056,503
3.0861442208034164,501
3.0869780884664273,501
3.087811956129438,500
3.0886458237924495,500
3.0894796914554603,499
3.090313559118471,498
3.091147426781482,498
3.091981294444493,497
3.0928151621075037,496
3.0936490297705146,495
3.094482897433526,494
3.0953167650965367,493
3.0961506327595476,492
3.0969845004225585,493
3.0978183680855693,493
3.09865223574858,493
3.0994861034115915,492
3.1003199710746023,492
3.101153838737613,492
3.101987706400624,490
3.102821574063635,490
3.1036554417266458,488
3.1044893093896566,487
3.105323177052668,486
3.1061570447156788,485
3.1069909123786896,484
3.1078247800417005,484
3.1086586477047113,483
3.109492515367722,482
3.110326383030733,482
3.1111602506937444,481
3.111994118356755,480
3.112827986019766,480
3.113661853682777,479
3.114495721345788,479
3.1153295890087986,479
3.1161634566718095,478
3.116997324334821,477
3.1178311919978317,477
3.1186650596608425,476
3.1194989273238534,476
3.1203327949868642,475
3.121166662649875,474
3.122000530312886,472
3.1228343979758972,470
3.123668265638908,469
3.124502133301919,468
3.12533600096493,467
3.1261698686279407,466
3.1270037362909515,466
3.1278376039539624,465
3.1286714716169737,465
3.1295053392799845,464
3.1303392069429954,464
3.1311730746060062,464
3.132006942269017,465
3.132840809932028,465
3.133674677595039,464
3.13450854525805,464
3.135342412921061,463
3.136176280584072,462
3.1370101482470827,461
3.1378440159100935,460
3.1386778835731044,459
3.1395117512361153,458
3.1403456188991266,457
3.1411794865621374,456
3.1420133542251483,455
3.142847221888159,456
3.14368108955117,455
3.144514957214181,453
3.1453488248771917,452
3.146182692540203,452
3.147016560203214,452
3.1478504278662247,452
3.1486842955292356,452
3.1495181631922464,452
3.1503520308552573,453
3.151185898518268,454
3.1520197661812794,453
3.1528536338442903,452
3.153687501507301,451
3.154521369170312,451
3.155355236833323,450
3.1561891044963337,450
3.1570229721593446,449
3.157856839822356,449
3.1586907074853667,448
3.1595245751483776,449
3.1603584428113884,449
3.1611923104743993,449
3.16202617813741,448
3.162860045800421,449
3.1636939134634323,450
3.164527781126443,451
3.165361648789454,451
3.166195516452465,451
3.1670293841154757,452
3.1678632517784866,452
3.1686971194414975,451
3.1695309871045088,451
3.1703648547675196,451
3.1711987224305305,450
3.1720325900935413,450
3.172866457756552,450
3.173700325419563,450
3.174534193082574,449
3.175368060745585,450
3.176201928408596,450
3.177035796071607,449
3.1778696637346178,449
3.1787035313976286,449
3.1795373990606395,449
3.1803712667236503,450
3.1812051343866616,451
3.1820390020496725,451
3.1828728697126834,452
3.183706737375694,452
3.184540605038705,452
3.185374472701716,452
3.1862083403647268,451
3.187042208027738,451
3.187876075690749,451
3.18870994335376,451
3.1895438110167706,450
3.1903776786797815,450
3.1912115463427924,450
3.192045414005803,450
3.1928792816688145,450
3.1937131493318254,450
3.1945470169948362,450
3.195380884657847,450
3.196214752320858,451
3.197048619983869,452
3.1978824876468797,452
3.198716355309891,453
3.199550222972902,453
3.2003840906359127,453
3.2012179582989235,454
3.2020518259619344,454
3.2028856936249452,454
3.203719561287956,454
3.2045534289509674,454
3.2053872966139783,454
3.206221164276989,454
3.20705503194,454
3.207888899603011,453
3.2087227672660217,453
3.2095566349290325,452
3.210390502592044,452
3.2112243702550547,452
3.2120582379180656,452
3.2128921055810764,453
3.2137259732440873,454
3.214559840907098,454
3.215393708570109,455
3.2162275762331203,455
3.217061443896131,455
3.217895311559142,455
3.218729179222153,455
3.2195630468851637,455
3.2203969145481746,455
3.2212307822111854,454
3.2220646498741967,454
3.2228985175372076,455
3.2237323852002184,455
3.2245662528632293,456
3.22540012052624,456
3.226233988189251,456
3.2270678558522623,455
3.227901723515273,456
3.228735591178284,456
3.229569458841295,456
3.2304033265043057,457
3.2312371941673166,458
3.2320710618303274,458
3.2329049294933387,458
3.2337387971563496,459
3.2345726648193605,459
3.2354065324823713,459
3.236240400145382,458
3.237074267808393,459
3.237908135471404,459
3.238742003134415,458
3.239575870797426,457
3.240409738460437,459
3.2412436061234478,458
3.2420774737864586,458
3.2429113414494695,458
3.2437452091124803,458
3.2445790767754916,458
3.2454129444385025,459
3.2462468121015133,459
3.247080679764524,459
3.247914547427535,460
3.248748415090546,461
3.2495822827535568,461
3.250416150416568,460
3.251250018079579,460
3.2520838857425898,460
3.2529177534056006,460
3.2537516210686115,460
3.2545854887316223,460
3.255419356394633,460
3.2562532240576445,461
3.2570870917206554,460
3.257920959383666,460
3.258754827046677,460
3.259588694709688,460
3.260422562372699,460
3.2612564300357096,460
3.262090297698721,461
3.262924165361732,462
3.2637580330247427,461
3.2645919006877535,461
3.2654257683507644,462
3.2662596360137752,462
3.267093503676786,463
3.2679273713397974,463
3.2687612390028082,463
3.269595106665819,463
3.27042897432883,463
3.271262841991841,463
3.2720967096548517,463
3.2729305773178625,462
3.273764444980874,461
3.2745983126438847,462
3.2754321803068955,461
3.2762660479699064,461
3.2770999156329172,461
3.277933783295928,462
3.278767650958939,463
3.2796015186219503,462
3.280435386284961,463
3.281269253947972,465
3.282103121610983,465
3.2829369892739937,466
3.2837708569370045,467
3.2846047246000154,467
3.2854385922630267,466
3.2862724599260376,466
3.2871063275890484,466
3.2879401952520593,466
3.28877406291507,466
3.289607930578081,466
3.290441798241092,465
3.291275665904103,465
3.292109533567114,464
3.292943401230125,464
3.2937772688931357,464
3.2946111365561466,464
3.2954450042191574,465
3.2962788718821683,466
3.2971127395451796,465
3.2979466072081904,466
3.2987804748712013,465
3.299614342534212,466
3.300448210197223,466
3.301282077860234,467
3.3021159455232447,468
3.302949813186256,468
3.303783680849267,468
3.3046175485122777,468
3.3054514161752886,468
3.3062852838382994,468
3.3071191515013103,468
3.307953019164321,468
3.3087868868273325,467
3.3096207544903433,468
3.310454622153354,469
3.311288489816365,468
3.312122357479376,468
3.3129562251423867,468
3.3137900928053976,469
3.314623960468409,470
3.3154578281314198,470
3.3162916957944306,470
3.3171255634574415,471
3.3179594311204523,471
3.318793298783463,470
3.319627166446474,470
3.3204610341094853,470
3.321294901772496,471
3.322128769435507,469
3.322962637098518,469
3.3237965047615288,469
3.3246303724245396,469
3.3254642400875505,470
3.326298107750562,469
3.3271319754135726,470
3.3279658430765835,471
3.3287997107395944,470
3.329633578402605,470
3.330467446065616,471
3.331301313728627,471
3.3321351813916382,471
3.332969049054649,471
3.33380291671766,471
3.334636784380671,472
3.3354706520436816,473
3.3363045197066925,473
3.3371383873697034,472
3.3379722550327147,472
3.3388061226957255,472
3.3396399903587364,471
3.3404738580217472,471
3.341307725684758,471
3.342141593347769,470
3.34297546101078,471
3.343809328673791,470
3.344643196336802,470
3.345477063999813,471
3.3463109316628237,471
3.3471447993258345,472
3.3479786669888454,471
3.3488125346518562,472
3.3496464023148675,472
3.3504802699778784,473
3.3513141376408893,472
3.3521480053039,472
3.352981872966911,473
3.353815740629922,472
3.354649608292933,471
3.355483475955944,470
3.356317343618955,470
3.3571512112819657,470
3.3579850789449766,470
3.3588189466079874,470
3.3596528142709983,470
3.3604866819340096,471
3.3613205495970204,470
3.3621544172600313,470
3.362988284923042,470
3.363822152586053,470
3.364656020249064,471
3.3654898879120747,471
3.366323755575086,471
3.367157623238097,473
3.3679914909011077,473
3.3688253585641186,472
3.3696592262271294,473
3.3704930938901403,473
3.371326961553151,473
3.3721608292161624,473
3.3729946968791733,473
3.373828564542184,472
3.374662432205195,472
3.375496299868206,472
3.3763301675312167,472
3.3771640351942276,472
3.377997902857239,474
3.3788317705202497,474
3.3796656381832606,474
3.3804995058462715,474
3.3813333735092823,475
3.382167241172293,475
3.383001108835304,475
3.3838349764983153,475
3.384668844161326,475
3.385502711824337,475
3.386336579487348,474
3.3871704471503588,474
3.3880043148133696,474
3.3888381824763805,474
3.3896720501393918,474
3.3905059178024026,474
3.3913397854654135,474
3.3921736531284243,475
3.393007520791435,474
3.393841388454446,475
3.394675256117457,475
3.395509123780468,475
3.396342991443479,475
3.39717685910649,475
3.3980107267695008,475
3.3988445944325116,475
3.3996784620955225,476
3.4005123297585333,476
3.4013461974215446,478
3.4021800650845555,477
3.4030139327475664,477
3.403847800410577,478
3.404681668073588,477
3.405515535736599,477
3.40634940339961,477
3.407183271062621,477
3.408017138725632,477
3.408851006388643,476
3.4096848740516537,478
3.4105187417146645,478
3.4113526093776754,478
3.4121864770406862,479
3.4130203447036975,479
3.4138542123667084,480
3.4146880800297192,480
3.41552194769273,480
3.416355815355741,480
3.417189683018752,480
3.4180235506817627,480
3.418857418344774,480
3.419691286007785,479
3.4205251536707957,479
3.4213590213338065,478
3.4221928889968174,479
3.4230267566598283,478
3.423860624322839,478
3.4246944919858504,479
3.4255283596488613,479
3.426362227311872,479
3.427196094974883,479
3.428029962637894,480
3.4288638303009047,480
3.4296976979639155,480
3.430531565626927,481
3.4313654332899377,482
3.4321993009529486,482
3.4330331686159594,483
3.4338670362789703,483
3.434700903941981,484
3.435534771604992,485
3.4363686392680033,485
3.437202506931014,485
3.438036374594025,485
3.438870242257036,486
3.4397041099200467,485
3.4405379775830576,484
3.4413718452460684,484
3.4422057129090797,485
3.4430395805720906,486
3.4438734482351014,486
3.4447073158981123,487
3.445541183561123,487
3.446375051224134,487
3.447208918887145,487
3.448042786550156,486
3.448876654213167,486
3.449710521876178,487
3.4505443895391887,486
3.4513782572021996,486
3.4522121248652105,486
3.4530459925282213,486
3.4538798601912326,485
3.4547137278542435,485
3.4555475955172543,485
3.456381463180265,485
3.457215330843276,485
3.458049198506287,484
3.4588830661692977,484
3.459716933832309,483
3.46055080149532,483
3.4613846691583308,483
3.4622185368213416,483
3.4630524044843525,484
3.4638862721473633,485
3.464720139810374,486
3.4655540074733855,486
3.4663878751363963,486
3.467221742799407,488
3.468055610462418,488
3.468889478125429,488
3.4697233457884398,488
3.4705572134514506,487
3.471391081114462,487
3.472224948777473,485
3.4730588164404836,485
3.4738926841034945,485
3.4747265517665054,486
3.475560419429516,486
3.476394287092527,487
3.4772281547555384,487
3.4780620224185492,488
3.47889589008156,487
3.479729757744571,486
3.480563625407582,486
3.4813974930705927,487
3.482231360733604,488
3.483065228396615,488
3.4838990960596257,487
3.4847329637226365,488
3.4855668313856474,487
3.4864006990486582,487
3.487234566711669,487
3.4880684343746804,488
3.4889023020376912,488
3.489736169700702,487
3.490570037363713,487
3.491403905026724,486
3.4922377726897347,485
3.4930716403527455,485
3.493905508015757,485
3.4947393756787677,485
3.4955732433417785,485
3.4964071110047894,487
3.4972409786678003,487
3.498074846330811,488
3.498908713993822,488
3.4997425816568333,490
3.500576449319844,490
3.501410316982855,490
3.502244184645866,490
3.5030780523088767,490
3.5039119199718876,490
3.5047457876348984,490
3.5055796552979097,489
3.5064135229609206,490
3.5072473906239314,491
3.5080812582869423,490
3.508915125949953,490
3.509748993612964,490
3.510582861275975,490
3.511416728938986,489
3.512250596601997,489
3.513084464265008,488
3.5139183319280187,490
3.5147521995910296,489
3.5155860672540404,489
3.5164199349170513,489
3.5172538025800626,490
3.5180876702430735,489
3.5189215379060843,489
3.519755405569095,489
3.520589273232106,488
3.521423140895117,489
3.5222570085581277,488
3.523090876221139,488
3.52392474388415,487
3.5247586115471607,487
3.5255924792101716,486
3.5264263468731825,486
3.5272602145361933,486
3.528094082199204,488
3.5289279498622155,490
3.5297618175252263,489
3.530595685188237,489
3.531429552851248,490
3.532263420514259,490
3.5330972881772698,491
3.5339311558402806,490
3.534765023503292,490
3.5355988911663028,491
3.5364327588293136,490
3.5372666264923245,489
3.5381004941553353,489
3.538934361818346,490
3.539768229481357,492
3.5406020971443684,491
3.541435964807379,491
3.54226983247039,490
3.543103700133401,490
3.543937567796412,490
3.5447714354594226,489
3.5456053031224335,489
3.546439170785445,490
3.5472730384484557,490
3.5481069061114665,490
3.5489407737744774,490
3.549774641437488,490
3.550608509100499,491
3.55144237676351,491
3.5522762444265212,491
3.553110112089532,491
3.553943979752543,492
3.554777847415554,492
3.5556117150785647,491
3.5564455827415755,491
3.5572794504045864,491
3.5581133180675977,490
3.5589471857306085,490
3.5597810533936194,489
3.5606149210566302,490
3.561448788719641,491
3.562282656382652,491
3.563116524045663,491
3.563950391708674,492
3.564784259371685,492
3.565618127034696,493
3.5664519946977067,492
3.5672858623607175,493
3.5681197300237284,493
3.5689535976867393,493
3.5697874653497506,493
3.5706213330127614,492
3.5714552006757723,494
3.572289068338783,493
3.573122936001794,493
3.573956803664805,492
3.5747906713278157,492
3.575624538990827,492
3.576458406653838,491
3.5772922743168487,490
3.5781261419798596,492
3.5789600096428704,492
3.5797938773058813,492
3.580627744968892,492
3.5814616126319034,492
3.5822954802949143,492
3.583129347957925,492
3.583963215620936,492
3.584797083283947,492
3.5856309509469577,492
3.5864648186099686,493
3.58729868627298,492
3.5881325539359907,492
3.5889664215990016,491
3.5898002892620124,491
3.5906341569250233,491
3.591468024588034,490
3.592301892251045,491
3.5931357599140563,491
3.593969627577067,492
3.594803495240078,492
3.595637362903089,492
3.5964712305660997,493
3.5973050982291106,493
3.5981389658921215,493
3.5989728335551328,494
3.5998067012181436,495
3.6006405688811545,495
3.6014744365441653,496
3.602308304207176,495
3.603142171870187,496
3.603976039533198,497
3.604809907196209,496
3.60564377485922,495
3.606477642522231,494
3.6073115101852418,493
3.6081453778482526,493
3.6089792455112635,493
3.609813113174275,493
3.6106469808372856,494
3.6114808485002965,494
3.6123147161633073,493
3.613148583826318,494
3.613982451489329,493
3.61481631915234,494
3.615650186815351,494
3.616484054478362,493
3.617317922141373,494
3.618151789804384,494
3.6189856574673946,494
3.6198195251304055,493
3.6206533927934164,493
3.6214872604564277,493
3.6223211281194385,493
3.6231549957824494,493
3.6239888634454602,492
3.624822731108471,492
3.625656598771482,493
3.626490466434493,493
3.627324334097504,493
3.628158201760515,493
3.628992069423526,493
3.6298259370865367,493
3.6306598047495475,493
3.6314936724125584,494
3.6323275400755692,495
3.6331614077385805,496
3.6339952754015914,496
3.6348291430646023,496
3.635663010727613,496
3.636496878390624,496
3.637330746053635,495
3.6381646137166457,495
3.638998481379657,495
3.639832349042668,496
3.6406662167056787,495
3.6415000843686895,494
3.6423339520317004,494
3.6431678196947113,494
3.644001687357722,494
3.6448355550207334,495
3.6456694226837443,495
3.646503290346755,495
3.647337158009766,495
3.648171025672777,496
3.6490048933357877,496
3.6498387609987986,496
3.65067262866181,496
3.6515064963248207,496
3.6523403639878316,496
3.6531742316508424,496
3.6540080993138533,495
3.654841966976864,495
3.655675834639875,495
3.6565097023028863,496
3.657343569965897,497
3.658177437628908,498
3.659011305291919,497
3.6598451729549297,496
3.6606790406179406,496
3.6615129082809514,496
3.6623467759439627,496
3.6631806436069736,496
3.6640145112699845,496
3.6648483789329953,495
3.665682246596006,496
3.666516114259017,495
3.667349981922028,497
3.668183849585039,499
3.66901771724805,499
3.669851584911061,498
3.6706854525740717,497
3.6715193202370826,496
3.6723531879000935,496
3.6731870555631043,496
3.6740209232261156,497
3.6748547908891265,497
3.6756886585521373,496
3.676522526215148,496
3.677356393878159,495
3.67819026154117,495
3.6790241292041808,496
3.679857996867192,496
3.680691864530203,497
3.6815257321932138,497
3.6823595998562246,498
3.6831934675192355,498
3.6840273351822463,500
3.684861202845257,502
3.6856950705082685,501
3.6865289381712794,500
3.68736280583429,499
3.688196673497301,498
3.689030541160312,497
3.689864408823323,497
3.6906982764863336,498
3.691532144149345,498
3.692366011812356,497
3.6931998794753667,496
3.6940337471383775,496
3.6948676148013884,497
3.6957014824643992,496
3.69653535012741,496
3.6973692177904214,496
3.6982030854534322,497
3.699036953116443,497
3.699870820779454,497
3.700704688442465,497
3.7015385561054757,497
3.7023724237684865,497
3.703206291431498,497
3.7040401590945087,497
3.7048740267575195,497
3.7057078944205304,498
3.7065417620835412,500
3.707375629746552,499
3.708209497409563,498
3.7090433650725743,497
3.709877232735585,496
3.710711100398596,496
3.711544968061607,496
3.7123788357246177,496
3.7132127033876285,497
3.7140465710506394,497
3.7148804387136507,498
3.7157143063766616,499
3.7165481740396724,501
3.7173820417026833,501
3.718215909365694,501
3.719049777028705,500
3.719883644691716,499
3.720717512354727,499
3.721551380017738,498
3.722385247680749,498
3.7232191153437597,498
3.7240529830067706,498
3.7248868506697814,497
3.7257207183327923,497
3.7265545859958036,497
3.7273884536588144,498
3.7282223213218253,498
3.729056188984836,498
3.729890056647847,498
3.730723924310858,498
3.7315577919738687,498
3.73239165963688,500
3.733225527299891,500
3.7340593949629017,500
3.7348932626259126,499
3.7357271302889234,499
3.7365609979519343,500
3.7373948656149456,499
3.7382287332779565,500
3.7390626009409673,500
3.739896468603978,499
3.740730336266989,498
3.74156420393,498
3.7423980715930107,498
3.743231939256022,497
3.744065806919033,497
3.7448996745820438,498
3.7457335422450546,499
3.7465674099080655,498
3.7474012775710763,500
3.748235145234087,500
3.7490690128970985,502
3.7499028805601093,503
3.75073674822312,502
3.751570615886131,501
3.752404483549142,500
3.7532383512121528,500
3.7540722188751636,500
3.754906086538175,500
3.755739954201186,499
3.7565738218641966,499
3.7574076895272075,498
3.7582415571902184,498
3.759075424853229,498
3.75990929251624,498
3.7607431601792514,499
3.761577027842262,498
3.762410895505273,499
3.763244763168284,498
3.764078630831295,498
3.7649124984943056,499
3.7657463661573165,499
3.766580233820328,500
3.7674141014833387,501
3.7682479691463495,501
3.7690818368093604,502
3.7699157044723712,501
3.770749572135382,503
3.771583439798393,504
3.7724173074614042,502
3.773251175124415,501
3.774085042787426,500
3.774918910450437,500
3.7757527781134477,499
3.7765866457764585,499
3.7774205134394694,499
3.7782543811024807,499
3.7790882487654915,499
3.7799221164285024,500
3.7807559840915133,500
3.781589851754524,501
3.782423719417535,502
3.783257587080546,501
3.784091454743557,501
3.784925322406568,501
3.785759190069579,501
3.7865930577325897,500
3.7874269253956006,500
3.7882607930586114,500
3.7890946607216223,500
3.7899285283846336,499
3.7907623960476444,499
3.7915962637106553,499
3.792430131373666,500
3.793263999036677,501
3.794097866699688,500
3.7949317343626987,499
3.79576560202571,500
3.796599469688721,501
3.7974333373517317,501
3.7982672050147426,501
3.7991010726777534,501
3.7999349403407643,502
3.800768808003775,502
3.8016026756667864,502
3.8024365433297973,502
3.803270410992808,504
3.804104278655819,504
3.80493814631883,503
3.8057720139818407,502
3.8066058816448516,501
3.807439749307863,501
3.8082736169708737,499
3.8091074846338846,499
3.8099413522968955,499
3.8107752199599063,499
3.811609087622917,499
3.812442955285928,499
3.8132768229489393,499
3.81411069061195,502
3.814944558274961,502
3.815778425937972,502
3.8166122936009828,502
3.8174461612639936,502
3.8182800289270045,502
3.8191138965900158,502
3.8199477642530266,501
3.8207816319160375,501
3.8216154995790483,502
3.822449367242059,502
3.82328323490507,501
3.824117102568081,501
3.824950970231092,501
3.825784837894103,502
3.826618705557114,501
3.8274525732201248,501
3.8282864408831356,501
3.8291203085461465,502
3.8299541762091573,502
3.8307880438721686,501
3.8316219115351795,501
3.8324557791981904,502
3.833289646861201,502
3.834123514524212,502
3.834957382187223,502
3.835791249850234,504
3.836625117513245,504
3.837458985176256,503
3.838292852839267,503
3.8391267205022777,503
3.8399605881652885,502
3.8407944558282994,501
3.8416283234913102,500
3.8424621911543215,500
3.8432960588173324,501
3.8441299264803432,502
3.844963794143354,501
3.845797661806365,501
3.846631529469376,503
3.8474653971323867,503
3.848299264795398,503
3.849133132458409,503
3.8499670001214197,504
3.8508008677844305,504
3.8516347354474414,504
3.8524686031104522,503
3.853302470773463,502
3.8541363384364744,502
3.8549702060994853,502
3.855804073762496,501
3.856637941425507,500
3.857471809088518,501
3.8583056767515287,501
3.85913954441454,501
3.859973412077551,501
3.8608072797405617,501
3.8616411474035726,502
3.8624750150665834,502
3.8633088827295943,501
3.864142750392605,502
3.8649766180556164,503
3.8658104857186273,503
3.866644353381638,504
3.867478221044649,504
3.86831208870766,506
3.8691459563706707,506
3.8699798240336816,505
3.870813691696693,504
3.8716475593597037,503
3.8724814270227146,503
3.8733152946857254,502
3.8741491623487363,502
3.874983030011747,502
3.875816897674758,501
3.8766507653377693,501
3.87748463300078,501
3.878318500663791,501
3.879152368326802,502
3.8799862359898127,502
3.8808201036528236,502
3.8816539713158345,502
3.8824878389788458,503
3.8833217066418566,503
3.8841555743048675,503
3.8849894419678783,504
3.885823309630889,504
3.8866571772939,505
3.887491044956911,505
3.888324912619922,505
3.889158780282933,505
3.889992647945944,505
3.8908265156089548,505
3.8916603832719656,505
3.8924942509349765,503
3.8933281185979873,503
3.8941619862609986,505
3.8949958539240095,504
3.8958297215870203,504
3.896663589250031,504
3.897497456913042,504
3.898331324576053,504
3.8991651922390638,504
3.899999059902075,504
3.900832927565086,506
3.901666795228097,507
3.9025006628911076,507
3.9033345305541185,506
3.9041683982171294,507
3.90500226588014,506
3.9058361335431515,505
3.9066700012061624,504
3.9075038688691732,503
3.908337736532184,503
3.909171604195195,503
3.910005471858206,503
3.9108393395212167,503
3.911673207184228,504
3.912507074847239,504
3.9133409425102497,505
3.9141748101732605,506
3.9150086778362714,507
3.9158425454992822,508
3.916676413162293,508
3.9175102808253044,508
3.9183441484883152,507
3.919178016151326,507
3.920011883814337,508
3.920845751477348,507
3.9216796191403587,506
3.9225134868033695,506
3.923347354466381,506
3.9241812221293917,506
3.9250150897924025,505
3.9258489574554134,506
3.9266828251184243,508
3.927516692781435,506
3.928350560444446,505
3.9291844281074573,505
3.930018295770468,505
3.930852163433479,505
3.93168603109649,505
3.9325198987595007,505
3.9333537664225116,506
3.9341876340855224,507
3.9350215017485337,507
3.9358553694115446,506
3.9366892370745554,505
3.9375231047375663,506
3.938356972400577,505
3.939190840063588,504
3.940024707726599,503
3.94085857538961,503
3.941692443052621,502
3.942526310715632,502
3.9433601783786427,502
3.9441940460416536,502
3.9450279137046644,503
3.9458617813676753,503
3.9466956490306866,503
3.9475295166936974,504
3.9483633843567083,505
3.949197252019719,505
3.95003111968273,505
3.950864987345741,504
3.9516988550087517,505
3.952532722671763,504
3.953366590334774,504
3.9542004579977847,503
3.9550343256607956,504
3.9558681933238065,504
3.9567020609868173,504
3.957535928649828,503
3.9583697963128395,504
3.9592036639758503,505
3.960037531638861,504
3.960871399301872,504
3.961705266964883,503
3.9625391346278938,503
3.9633730022909046,503
3.964206869953916,503
3.9650407376169268,503
3.9658746052799376,505
3.9667084729429485,506
3.9675423406059593,506
3.96837620826897,506
3.969210075931981,506
3.9700439435949924,506
3.970877811258003,505
3.971711678921014,504
3.972545546584025,503
3.973379414247036,503
3.9742132819100466,503
3.9750471495730575,503
3.975881017236069,502
3.9767148848990796,503
3.9775487525620905,503
3.9783826202251014,504
3.979216487888112,504
3.980050355551123,505
3.980884223214134,506
3.9817180908771452,506
3.982551958540156,505
3.983385826203167,506
3.984219693866178,507
3.9850535615291887,506
3.9858874291921995,505
3.986721296855211,505
3.9875551645182217,506
3.9883890321812325,505
3.9892228998442434,505
3.9900567675072542,504
3.990890635170265,505
3.991724502833276,505
3.9925583704962873,504
3.993392238159298,504
3.994226105822309,503
3.99505997348532,504
3.9958938411483307,504
3.9967277088113415,504
3.9975615764743524,504
3.9983954441373637,506
3.9992293118003746,506
4.000063179463385,506
4.000897047126396,506
4.001730914789407,507
4.002564782452418,508
4.003398650115429,506
4.00423251777844,506
4.0050663854414505,505
4.005900253104461,505
4.006734120767472,504
4.007567988430484,504
4.008401856093495,503
4.009235723756506,503
4.010069591419517,503
4.010903459082527,504
4.011737326745538,503
4.012571194408549,505
4.01340506207156,506
4.014238929734571,505
4.015072797397582,505
4.015906665060593,505
4.016740532723603,505
4.017574400386614,505
4.018408268049625,505
4.019242135712637,505
4.020076003375648,506
4.020909871038659,506
4.0217437387016695,505
4.02257760636468,505
4.023411474027691,506
4.024245341690702,506
4.025079209353713,505
4.025913077016724,505
4.026746944679735,504
4.0275808123427455,504
4.028414680005756,504
4.029248547668767,504
4.030082415331778,504
4.03091628299479,507
4.031750150657801,507
4.0325840183208115,507
4.033417885983822,507
4.034251753646833,508
4.035085621309844,509
4.035919488972855,508
4.036753356635866,508
4.037587224298877,507
4.0384210919618875,506
4.039254959624898,506
4.040088827287909,505
4.04092269495092,505
4.041756562613931,505
4.042590430276943,505
4.0434242979399535,505
4.044258165602964,505
4.045092033265975,506
4.045925900928986,506
4.046759768591997,506
4.047593636255008,506
4.048427503918019,506
4.0492613715810295,506
4.05009523924404,506
4.050929106907051,506
4.051762974570062,507
4.052596842233073,507
4.053430709896085,507
4.0542645775590955,507
4.055098445222106,506
4.055932312885117,507
4.056766180548128,507
4.057600048211139,506
4.05843391587415,505
4.059267783537161,505
4.0601016512001715,504
4.060935518863182,504
4.061769386526193,505
4.062603254189204,505
4.063437121852215,506
4.064270989515226,506
4.0651048571782376,507
4.065938724841248,507
4.066772592504259,508
4.06760646016727,507
4.068440327830281,507
4.069274195493292,506
4.070108063156303,506
4.0709419308193135,507
4.071775798482324,506
4.072609666145335,506
4.073443533808346,506
4.074277401471357,506
4.075111269134368,505
4.075945136797379,505
4.07677900446039,505
4.077612872123401,507
4.078446739786412,507
4.079280607449423,505
4.080114475112434,506
4.080948342775445,505
4.081782210438456,506
4.082616078101466,506
4.083449945764477,506
4.084283813427488,506
4.085117681090499,506
4.08595154875351,506
4.086785416416521,506
4.087619284079532,506
4.088453151742543,506
4.089287019405554,506
4.090120887068565,505
4.090954754731576,504
4.091788622394587,503
4.092622490057598,504
4.0934563577206085,503
4.094290225383619,503
4.09512409304663,505
4.095957960709641,506
4.096791828372652,506
4.097625696035663,506
4.098459563698674,507
4.0992934313616844,508
4.100127299024696,507
4.100961166687707,507
4.101795034350718,506
4.102628902013729,507
4.10346276967674,506
4.1042966373397505,506
4.105130505002761,505
4.105964372665772,504
4.106798240328783,504
4.107632107991794,504
4.108465975654805,503
4.109299843317816,503
4.1101337109808265,504
4.110967578643837,504
4.111801446306849,504
4.11263531396986,504
4.113469181632871,504
4.114303049295882,504
4.1151369169588925,504
4.115970784621903,504
4.116804652284914,505
4.117638519947925,505
4.118472387610936,506
4.119306255273947,506
4.120140122936958,506
4.1209739905999685,507
4.121807858262979,506
4.12264172592599,506
4.123475593589002,506
4.124309461252013,505
4.125143328915024,505
4.1259771965780345,504
4.126811064241045,504
4.127644931904056,505
4.128478799567067,506
4.129312667230078,506
4.130146534893089,506
4.1309804025561,507
4.1318142702191105,507
4.132648137882121,507
4.133482005545132,507
4.134315873208143,507
4.135149740871155,508
4.135983608534166,509
4.1368174761971765,508
4.137651343860187,508
4.138485211523198,507
4.139319079186209,506
4.14015294684922,506
4.140986814512231,505
4.141820682175242,505
4.1426545498382525,506
4.143488417501263,505
4.144322285164274,505
4.145156152827285,505
4.145990020490296,505
4.146823888153308,505
4.147657755816319,506
4.148491623479329,506
4.14932549114234,506
4.150159358805351,506
4.150993226468362,506
4.151827094131373,506
4.152660961794384,507
4.153494829457395,508
4.154328697120405,508
4.155162564783416,508
4.155996432446427,507
4.156830300109438,507
4.157664167772449,506
4.158498035435461,505
4.1593319030984715,506
4.160165770761482,507
4.160999638424493,507
4.161833506087504,506
4.162667373750515,506
4.163501241413526,507
4.164335109076537,508
4.1651689767395474,508
4.166002844402558,509
4.166836712065569,509
4.16767057972858,509
4.168504447391591,509
4.169338315054602,509
4.1701721827176135,508
4.171006050380624,508
4.171839918043635,508
4.172673785706646,507
4.173507653369657,507
4.174341521032668,506
4.175175388695679,506
4.1760092563586895,507
4.1768431240217,507
4.177676991684711,507
4.178510859347722,507
4.179344727010733,508
4.180178594673744,508
4.1810124623367555,508
4.181846329999766,509
4.182680197662777,509
4.183514065325788,509
4.184347932988799,509
4.18518180065181,510
4.186015668314821,512
4.1868495359778315,511
4.187683403640842,512
4.188517271303853,512
4.189351138966864,511
4.190185006629875,511
4.191018874292886,510
4.191852741955897,509
4.192686609618908,511
4.193520477281919,511
4.19435434494493,512
4.195188212607941,512
4.196022080270952,514
4.196855947933963,514
4.1976898155969735,514
4.198523683259984,514
4.199357550922995,514
4.200191418586006,515
4.201025286249017,514
4.201859153912028,514
4.202693021575039,515
4.2035268892380495,515
4.204360756901061,516
4.205194624564072,515
4.206028492227083,515
4.206862359890094,515
4.207696227553105,515
4.2085300952161155,514
4.209363962879126,514
4.210197830542137,514
4.211031698205148,515
4.211865565868159,516
4.21269943353117,517
4.213533301194181,519
4.2143671688571915,519
4.215201036520202,520
4.216034904183214,520
4.216868771846225,521
4.217702639509236,522
4.218536507172247,524
4.219370374835258,523
4.220204242498268,524
4.221038110161279,523
4.22187197782429,524
4.222705845487301,523
4.223539713150312,523
4.224373580813323,524
4.225207448476334,525
4.226041316139344,524
4.226875183802355,524
4.227709051465367,524
4.228542919128378,525
4.229376786791389,525
4.2302106544544,526
4.2310445221174104,526
4.231878389780421,527
4.232712257443432,527
4.233546125106443,527
4.234379992769454,528
4.235213860432465,528
4.236047728095476,528
4.236881595758486,527
4.237715463421497,527
4.238549331084508,527
4.23938319874752,527
4.240217066410531,527
4.241050934073542,527
4.2418848017365525,527
4.242718669399563,527
4.243552537062574,528
4.244386404725585,528
4.245220272388596,528
4.246054140051607,528
4.246888007714618,528
4.2477218753776285,529
4.248555743040639,528
4.24938961070365,529
4.250223478366661,530
4.251057346029673,531
4.251891213692684,531
4.2527250813556945,532
4.253558949018705,532
4.254392816681716,531
4.255226684344727,530
4.256060552007738,530
4.256894419670749,531
4.25772828733376,531
4.2585621549967705,530
4.259396022659781,530
4.260229890322792,530
4.261063757985803,530
4.261897625648814,530
4.262731493311826,530
4.2635653609748365,531
4.264399228637847,530
4.265233096300858,531
4.266066963963869,532
4.26690083162688,531
4.267734699289891,532
4.268568566952902,531
4.2694024346159125,531
4.270236302278923,532
4.271070169941934,532
4.271904037604945,531
4.272737905267956,531
4.273571772930967,530
4.2744056405939785,529
4.275239508256989,528
4.27607337592,528
4.276907243583011,527
4.277741111246022,528
4.278574978909033,528
4.279408846572044,530
4.2802427142350545,531
4.281076581898065,533
4.281910449561076,533
4.282744317224087,535
4.283578184887098,536
4.284412052550109,535
4.28524592021312,535
4.286079787876131,534
4.286913655539142,534
4.287747523202153,534
4.288581390865164,533
4.289415258528175,533
4.290249126191186,533
4.291082993854197,532
4.291916861517207,532
4.292750729180218,532
4.293584596843229,533
4.29441846450624,533
4.295252332169251,532
4.296086199832262,533
4.2969200674952726,533
4.297753935158284,535
4.298587802821295,536
4.299421670484306,536
4.300255538147317,537
4.301089405810328,536
4.301923273473339,537
4.302757141136349,536
4.30359100879936,536
4.304424876462371,535
4.305258744125382,536
4.306092611788393,536
4.306926479451404,536
4.307760347114415,535
4.308594214777426,536
4.309428082440437,536
4.310261950103448,536
4.311095817766459,537
4.31192968542947,538
4.312763553092481,538
4.3135974207554915,539
4.314431288418502,539
4.315265156081513,540
4.316099023744524,540
4.316932891407535,540
4.317766759070546,541
4.318600626733557,540
4.3194344943965675,540
4.320268362059579,540
4.32110222972259,539
4.321936097385601,539
4.322769965048612,539
4.323603832711623,538
4.3244377003746335,538
4.325271568037644,539
4.326105435700655,539
4.326939303363666,540
4.327773171026677,540
4.328607038689688,541
4.329440906352699,541
4.3302747740157095,542
4.33110864167872,543
4.331942509341732,543
4.332776377004743,544
4.333610244667754,544
4.334444112330765,545
4.3352779799937755,544
4.336111847656786,544
4.336945715319797,544
4.337779582982808,545
4.338613450645819,545
4.33944731830883,544
4.340281185971841,543
4.3411150536348515,543
4.341948921297862,543
4.342782788960873,543
4.343616656623885,543
4.344450524286896,544
4.345284391949907,545
4.3461182596129175,545
4.346952127275928,546
4.347785994938939,547
4.34861986260195,547
4.349453730264961,547
4.350287597927972,547
4.351121465590983,547
4.3519553332539935,546
4.352789200917004,547
4.353623068580015,546
4.354456936243026,546
4.355290803906038,547
4.356124671569049,547
4.35695853923206,548
4.35779240689507,548
4.358626274558081,546
4.359460142221092,546
4.360294009884103,546
4.361127877547114,546
4.361961745210125,546
4.3627956128731356,547
4.363629480536146,548
4.364463348199157,549
4.365297215862168,550
4.366131083525179,550
4.366964951188191,551
4.367798818851202,550
4.368632686514212,550
4.369466554177223,549
4.370300421840234,549
4.371134289503245,548
4.371968157166256,548
4.372802024829267,548
4.373635892492278,548
4.374469760155288,548
4.375303627818299,549
4.37613749548131,549
4.376971363144321,549
4.377805230807332,549
4.378639098470344,549
4.3794729661333545,549
4.380306833796365,550
4.381140701459376,551
4.381974569122387,551
4.382808436785398,552
4.383642304448409,553
4.38447617211142,554
4.3853100397744305,555
4.386143907437441,556
4.386977775100452,556
4.387811642763463,556
4.388645510426474,555
4.389479378089485,555
4.3903132457524965,554
4.391147113415507,554
4.391980981078518,554
4.392814848741529,554
4.39364871640454,555
4.394482584067551,555
4.395316451730562,557
4.3961503193935725,558
4.396984187056583,558
4.397818054719594,559
4.398651922382605,558
4.399485790045616,558
4.400319657708627,559
4.401153525371638,560
4.401987393034649,560
4.40282126069766,560
4.403655128360671,560
4.404488996023682,560
4.405322863686693,560
4.406156731349704,561
4.4069905990127145,560
4.407824466675725,560
4.408658334338736,560
4.409492202001747,560
