time,signal
0.0,485
0.0008335234648518346,486
0.0016670469297036692,486
0.002500570394555504,486
0.0033340938594073385,487
0.0041676173242591735,487
0.005001140789111008,487
0.005834664253962842,487
0.006668187718814677,488
0.007501711183666512,489
0.008335234648518347,490
0.00916875811337018,491
0.010002281578222015,490
0.01083580504307385,490
0.011669328507925684,490
0.012502851972777519,490
0.013336375437629354,491
0.014169898902481189,491
0.015003422367333024,491
0.015836945832184857,490
0.016670469297036694,489
0.017503992761888527,488
0.01833751622674036,488
0.019171039691592198,488
0.02000456315644403,487
0.020838086621295864,488
0.0216716100861477,488
0.022505133550999534,489
0.023338657015851368,489
0.024172180480703204,490
0.025005703945555038,490
0.025839227410406874,490
0.026672750875258708,490
0.02750627434011054,489
0.028339797804962378,488
0.02917332126981421,488
0.030006844734666048,489
0.03084036819951788,489
0.031673891664369715,490
0.03250741512922155,489
0.03334093859407339,489
0.03417446205892522,489
0.035007985523777055,488
0.03584150898862889,488
0.03667503245348072,488
0.037508555918332555,488
0.038342079383184395,488
0.03917560284803623,489
0.04000912631288806,490
0.040842649777739895,490
0.04167617324259173,490
0.04250969670744357,489
0.0433432201722954,489
0.044176743637147235,489
0.04501026710199907,490
0.0458437905668509,489
0.046677314031702735,490
0.047510837496554575,489
0.04834436096140641,489
0.04917788442625824,490
0.050011407891110075,490
0.05084493135596191,491
0.05167845482081375,490
0.05251197828566558,489
0.053345501750517416,489
0.05417902521536925,489
0.05501254868022108,489
0.05584607214507292,489
0.056679595609924756,489
0.05751311907477659,488
0.05834664253962842,488
0.059180166004480256,487
0.060013689469332096,487
0.06084721293418393,486
0.06168073639903576,487
0.0625142598638876,486
0.06334778332873943,485
0.06418130679359127,486
0.0650148302584431,486
0.06584835372329494,486
0.06668187718814678,487
0.0675154006529986,488
0.06834892411785044,488
0.06918244758270227,488
0.07001597104755411,489
0.07084949451240594,488
0.07168301797725778,488
0.07251654144210962,487
0.07335006490696144,488
0.07418358837181328,487
0.07501711183666511,487
0.07585063530151695,487
0.07668415876636879,487
0.07751768223122062,486
0.07835120569607246,486
0.07918472916092428,486
0.08001825262577612,485
0.08085177609062796,485
0.08168529955547979,485
0.08251882302033163,485
0.08335234648518346,486
0.0841858699500353,486
0.08501939341488714,488
0.08585291687973896,488
0.0866864403445908,489
0.08751996380944263,489
0.08835348727429447,488
0.08918701073914631,488
0.09002053420399814,487
0.09085405766884998,488
0.0916875811337018,487
0.09252110459855364,486
0.09335462806340547,486
0.09418815152825731,485
0.09502167499310915,484
0.09585519845796098,484
0.09668872192281282,484
0.09752224538766464,484
0.09835576885251648,484
0.09918929231736832,485
0.10002281578222015,485
0.10085633924707199,485
0.10168986271192382,486
0.10252338617677566,488
0.1033569096416275,489
0.10419043310647932,489
0.10502395657133116,489
0.10585748003618299,489
0.10669100350103483,489
0.10752452696588667,488
0.1083580504307385,487
0.10919157389559034,487
0.11002509736044216,486
0.110858620825294,486
0.11169214429014584,486
0.11252566775499767,485
0.11335919121984951,485
0.11419271468470134,484
0.11502623814955318,485
0.11585976161440502,486
0.11669328507925684,485
0.11752680854410869,486
0.11836033200896051,486
0.11919385547381235,487
0.12002737893866419,487
0.12086090240351602,489
0.12169442586836786,490
0.12252794933321969,489
0.12336147279807153,490
0.12419499626292335,489
0.1250285197277752,488
0.12586204319262703,487
0.12669556665747886,486
0.12752909012233068,485
0.12836261358718254,484
0.12919613705203437,484
0.1300296605168862,484
0.13086318398173805,484
0.13169670744658987,484
0.1325302309114417,485
0.13336375437629355,485
0.13419727784114538,485
0.1350308013059972,486
0.13586432477084903,488
0.1366978482357009,488
0.1375313717005527,488
0.13836489516540454,488
0.1391984186302564,488
0.14003194209510822,489
0.14086546555996005,489
0.14169898902481187,491
0.14253251248966373,490
0.14336603595451555,488
0.14419955941936738,487
0.14503308288421923,486
0.14586660634907106,485
0.14670012981392289,484
0.14753365327877474,485
0.14836717674362657,485
0.1492007002084784,485
0.15003422367333022,485
0.15086774713818207,486
0.1517012706030339,486
0.15253479406788573,486
0.15336831753273758,487
0.1542018409975894,489
0.15503536446244123,489
0.1558688879272931,490
0.1567024113921449,491
0.15753593485699674,491
0.15836945832184857,490
0.15920298178670042,491
0.16003650525155225,491
0.16087002871640407,489
0.16170355218125593,487
0.16253707564610775,486
0.16337059911095958,485
0.1642041225758114,485
0.16503764604066326,485
0.1658711695055151,486
0.1667046929703669,486
0.16753821643521877,486
0.1683717399000706,488
0.16920526336492242,489
0.17003878682977427,489
0.1708723102946261,489
0.17170583375947793,490
0.17253935722432975,491
0.1733728806891816,490
0.17420640415403343,492
0.17503992761888526,492
0.17587345108373711,492
0.17670697454858894,491
0.17754049801344077,492
0.17837402147829262,491
0.17920754494314445,489
0.18004106840799627,489
0.1808745918728481,488
0.18170811533769995,488
0.18254163880255178,488
0.1833751622674036,488
0.18420868573225546,488
0.1850422091971073,488
0.18587573266195911,489
0.18670925612681094,491
0.1875427795916628,491
0.18837630305651462,490
0.18920982652136645,491
0.1900433499862183,491
0.19087687345107013,491
0.19171039691592195,491
0.1925439203807738,492
0.19337744384562564,493
0.19421096731047746,492
0.1950444907753293,495
0.19587801424018114,494
0.19671153770503297,492
0.1975450611698848,490
0.19837858463473665,490
0.19921210809958848,489
0.2000456315644403,489
0.20087915502929216,490
0.20171267849414398,490
0.2025462019589958,490
0.20337972542384763,490
0.2042132488886995,491
0.20504677235355132,492
0.20588029581840314,492
0.206713819283255,493
0.20754734274810682,494
0.20838086621295865,493
0.2092143896778105,492
0.21004791314266233,493
0.21088143660751416,493
0.21171496007236598,492
0.21254848353721784,493
0.21338200700206966,496
0.2142155304669215,495
0.21504905393177334,493
0.21588257739662517,493
0.216716100861477,492
0.21754962432632882,492
0.21838314779118068,492
0.2192166712560325,492
0.22005019472088433,492
0.22088371818573618,491
0.221717241650588,492
0.22255076511543984,492
0.2233842885802917,493
0.22421781204514352,492
0.22505133550999534,494
0.22588485897484717,494
0.22671838243969902,493
0.22755190590455085,493
0.22838542936940268,495
0.22921895283425453,495
0.23005247629910636,495
0.23088599976395818,498
0.23171952322881004,500
0.23255304669366186,498
0.2333865701585137,498
0.23422009362336552,498
0.23505361708821737,497
0.2358871405530692,497
0.23672066401792102,499
0.23755418748277288,501
0.2383877109476247,500
0.23922123441247653,499
0.24005475787732838,501
0.2408882813421802,501
0.24172180480703204,501
0.24255532827188386,502
0.24338885173673572,505
0.24422237520158754,504
0.24505589866643937,503
0.24588942213129122,503
0.24672294559614305,503
0.24755646906099488,502
0.2483899925258467,503
0.24922351599069856,506
0.2500570394555504,508
0.25089056292040224,506
0.25172408638525406,506
0.2525576098501059,508
0.2533911333149577,509
0.25422465677980954,511
0.25505818024466137,513
0.25589170370951325,516
0.2567252271743651,516
0.2575587506392169,517
0.25839227410406873,519
0.25922579756892056,521
0.2600593210337724,521
0.2608928444986242,523
0.2617263679634761,526
0.2625598914283279,525
0.26339341489317974,526
0.26422693835803157,530
0.2650604618228834,532
0.2658939852877352,533
0.2667275087525871,536
0.26756103221743893,541
0.26839455568229076,543
0.2692280791471426,544
0.2700616026119944,546
0.27089512607684624,547
0.27172864954169806,547
0.27256217300654995,546
0.2733956964714018,547
0.2742292199362536,547
0.2750627434011054,548
0.27589626686595725,549
0.2767297903308091,551
0.2775633137956609,552
0.2783968372605128,554
0.2792303607253646,558
0.28006388419021644,561
0.28089740765506827,563
0.2817309311199201,565
0.2825644545847719,570
0.28339797804962374,572
0.2842315015144756,574
0.28506502497932745,578
0.2858985484441793,582
0.2867320719090311,582
0.28756559537388293,582
0.28839911883873476,584
0.28923264230358664,585
0.29006616576843847,585
0.2908996892332903,586
0.2917332126981421,587
0.29256673616299395,586
0.29340025962784577,585
0.2942337830926976,585
0.2950673065575495,587
0.2959008300224013,588
0.29673435348725313,589
0.29756787695210496,592
0.2984014004169568,592
0.2992349238818086,592
0.30006844734666044,592
0.3009019708115123,594
0.30173549427636415,593
0.302569017741216,593
0.3034025412060678,596
0.3042360646709196,597
0.30506958813577145,594
0.3059031116006233,593
0.30673663506547516,592
0.307570158530327,590
0.3084036819951788,587
0.30923720546003064,586
0.31007072892488247,585
0.3109042523897343,581
0.3117377758545862,578
0.312571299319438,576
0.3134048227842898,574
0.31423834624914165,570
0.3150718697139935,569
0.3159053931788453,570
0.31673891664369713,568
0.317572440108549,566
0.31840596357340084,564
0.31923948703825267,563
0.3200730105031045,561
0.3209065339679563,559
0.32174005743280815,561
0.32257358089766,562
0.32340710436251185,560
0.3242406278273637,557
0.3250741512922155,554
0.32590767475706733,552
0.32674119822191916,550
0.327574721686771,548
0.3284082451516228,547
0.3292417686164747,546
0.3300752920813265,545
0.33090881554617835,543
0.3317423390110302,542
0.332575862475882,541
0.3334093859407338,542
0.3342429094055857,541
0.33507643287043753,540
0.33590995633528936,541
0.3367434798001412,541
0.337577003264993,540
0.33841052672984484,539
0.33924405019469667,540
0.34007757365954855,541
0.3409110971244004,540
0.3417446205892522,538
0.34257814405410403,537
0.34341166751895585,535
0.3442451909838077,533
0.3450787144486595,532
0.3459122379135114,530
0.3467457613783632,528
0.34757928484321504,528
0.34841280830806687,528
0.3492463317729187,527
0.3500798552377705,526
0.35091337870262235,527
0.35174690216747423,527
0.35258042563232606,526
0.3534139490971779,526
0.3542474725620297,527
0.35508099602688153,526
0.35591451949173336,526
0.35674804295658524,526
0.35758156642143707,527
0.3584150898862889,525
0.3592486133511407,525
0.36008213681599255,525
0.3609156602808444,523
0.3617491837456962,521
0.3625827072105481,520
0.3634162306753999,518
0.36424975414025174,518
0.36508327760510356,516
0.3659168010699554,516
0.3667503245348072,516
0.36758384799965904,516
0.3684173714645109,516
0.36925089492936275,517
0.3700844183942146,516
0.3709179418590664,517
0.37175146532391823,517
0.37258498878877006,517
0.3734185122536219,517
0.37425203571847376,518
0.3750855591833256,519
0.3759190826481774,519
0.37675260611302924,518
0.37758612957788107,518
0.3784196530427329,518
0.3792531765075848,516
0.3800866999724366,515
0.38092022343728843,514
0.38175374690214026,513
0.3825872703669921,513
0.3834207938318439,513
0.38425431729669574,513
0.3850878407615476,514
0.38592136422639944,514
0.38675488769125127,513
0.3875884111561031,514
0.3884219346209549,515
0.38925545808580675,514
0.3900889815506586,514
0.39092250501551046,514
0.3917560284803623,513
0.3925895519452141,514
0.39342307541006594,514
0.39425659887491776,515
0.3950901223397696,514
0.39592364580462147,514
0.3967571692694733,512
0.3975906927343251,511
0.39842421619917695,511
0.3992577396640288,511
0.4000912631288806,511
0.40092478659373243,510
0.4017583100585843,510
0.40259183352343614,511
0.40342535698828796,511
0.4042588804531398,510
0.4050924039179916,512
0.40592592738284344,512
0.40675945084769527,512
0.40759297431254715,510
0.408426497777399,511
0.4092600212422508,511
0.41009354470710263,509
0.41092706817195446,511
0.4117605916368063,513
0.4125941151016581,512
0.41342763856651,511
0.4142611620313618,511
0.41509468549621364,512
0.41592820896106547,510
0.4167617324259173,510
0.4175952558907691,510
0.418428779355621,510
0.41926230282047283,510
0.42009582628532466,510
0.4209293497501765,511
0.4217628732150283,511
0.42259639667988014,510
0.42342992014473196,510
0.42426344360958385,512
0.42509696707443567,510
0.4259304905392875,511
0.4267640140041393,510
0.42759753746899115,510
0.428431060933843,509
0.4292645843986948,509
0.4300981078635467,510
0.4309316313283985,510
0.43176515479325034,510
0.43259867825810217,510
0.433432201722954,509
0.4342657251878058,508
0.43509924865265764,508
0.4359327721175095,508
0.43676629558236135,510
0.4375998190472132,509
0.438433342512065,509
0.43926686597691683,510
0.44010038944176866,510
0.44093391290662054,510
0.44176743637147237,510
0.4426009598363242,511
0.443434483301176,510
0.44426800676602785,510
0.44510153023087967,510
0.4459350536957315,510
0.4467685771605834,510
0.4476021006254352,510
0.44843562409028703,513
0.44926914755513886,513
0.4501026710199907,513
0.4509361944848425,512
0.45176971794969434,513
0.4526032414145462,512
0.45343676487939805,512
0.4542702883442499,511
0.4551038118091017,511
0.4559373352739535,511
0.45677085873880535,510
0.4576043822036572,511
0.45843790566850906,511
0.4592714291333609,510
0.4601049525982127,509
0.46093847606306454,511
0.46177199952791637,510
0.4626055229927682,510
0.4634390464576201,509
0.4642725699224719,510
0.4651060933873237,509
0.46593961685217555,509
0.4667731403170274,512
0.4676066637818792,513
0.46844018724673103,513
0.4692737107115829,512
0.47010723417643474,513
0.47094075764128657,512
0.4717742811061384,512
0.4726078045709902,512
0.47344132803584205,512
0.4742748515006939,511
0.47510837496554575,511
0.4759418984303976,511
0.4767754218952494,510
0.47760894536010123,509
0.47844246882495306,509
0.4792759922898049,510
0.48010951575465677,509
0.4809430392195086,509
0.4817765626843604,509
0.48261008614921225,509
0.4834436096140641,509
0.4842771330789159,508
0.4851106565437677,510
0.4859441800086196,511
0.48677770347347143,511
0.48761122693832326,511
0.4884447504031751,510
0.4892782738680269,509
0.49011179733287874,508
0.49094532079773057,508
0.49177884426258245,508
0.4926123677274343,507
0.4934458911922861,506
0.4942794146571379,505
0.49511293812198975,504
0.4959464615868416,503
0.4967799850516934,502
0.4976135085165453,503
0.4984470319813971,502
0.49928055544624894,501
0.5001140789111008,501
0.5009476023759526,501
0.5017811258408045,501
0.5026146493056562,500
0.5034481727705081,501
0.5042816962353599,502
0.5051152197002118,501
0.5059487431650637,499
0.5067822666299154,498
0.5076157900947673,496
0.5084493135596191,495
0.509282837024471,494
0.5101163604893227,494
0.5109498839541746,492
0.5117834074190265,491
0.5126169308838783,490
0.5134504543487302,489
0.5142839778135819,489
0.5151175012784338,488
0.5159510247432856,489
0.5167845482081375,489
0.5176180716729893,489
0.5184515951378411,488
0.519285118602693,489
0.5201186420675448,489
0.5209521655323966,489
0.5217856889972484,490
0.5226192124621003,491
0.5234527359269522,489
0.524286259391804,489
0.5251197828566558,487
0.5259533063215076,485
0.5267868297863595,484
0.5276203532512113,483
0.5284538767160631,484
0.529287400180915,482
0.5301209236457668,481
0.5309544471106187,480
0.5317879705754704,480
0.5326214940403223,480
0.5334550175051742,480
0.534288540970026,482
0.5351220644348779,483
0.5359555878997296,483
0.5367891113645815,482
0.5376226348294333,484
0.5384561582942852,484
0.539289681759137,485
0.5401232052239888,486
0.5409567286888407,487
0.5417902521536925,486
0.5426237756185444,485
0.5434572990833961,483
0.544290822548248,482
0.5451243460130999,482
0.5459578694779517,482
0.5467913929428035,482
0.5476249164076553,481
0.5484584398725072,481
0.549291963337359,481
0.5501254868022109,481
0.5509590102670627,481
0.5517925337319145,482
0.5526260571967664,484
0.5534595806616182,484
0.55429310412647,484
0.5551266275913218,484
0.5559601510561737,485
0.5567936745210256,486
0.5576271979858773,485
0.5584607214507292,488
0.559294244915581,488
0.5601277683804329,486
0.5609612918452846,485
0.5617948153101365,484
0.5626283387749884,483
0.5634618622398402,482
0.5642953857046921,482
0.5651289091695438,483
0.5659624326343957,482
0.5667959560992475,483
0.5676294795640994,483
0.5684630030289513,484
0.569296526493803,485
0.5701300499586549,485
0.5709635734235067,487
0.5717970968883586,487
0.5726306203532103,486
0.5734641438180622,487
0.5742976672829141,488
0.5751311907477659,487
0.5759647142126177,487
0.5767982376774695,488
0.5776317611423214,487
0.5784652846071733,486
0.579298808072025,486
0.5801323315368769,486
0.5809658550017287,485
0.5817993784665806,485
0.5826329019314324,485
0.5834664253962842,485
0.5842999488611361,484
0.5851334723259879,484
0.5859669957908398,486
0.5868005192556915,486
0.5876340427205434,487
0.5884675661853952,487
0.5893010896502471,488
0.590134613115099,488
0.5909681365799507,488
0.5918016600448026,488
0.5926351835096544,489
0.5934687069745063,488
0.594302230439358,488
0.5951357539042099,489
0.5959692773690618,488
0.5968028008339136,488
0.5976363242987655,486
0.5984698477636172,487
0.5993033712284691,486
0.6001368946933209,486
0.6009704181581728,487
0.6018039416230246,487
0.6026374650878764,487
0.6034709885527283,488
0.6043045120175801,490
0.605138035482432,489
0.6059715589472837,490
0.6068050824121356,489
0.6076386058769875,489
0.6084721293418393,489
0.6093056528066911,489
0.6101391762715429,489
0.6109726997363948,489
0.6118062232012466,489
0.6126397466660984,489
0.6134732701309503,491
0.6143067935958021,490
0.615140317060654,490
0.6159738405255057,489
0.6168073639903576,489
0.6176408874552094,489
0.6184744109200613,489
0.6193079343849132,489
0.6201414578497649,489
0.6209749813146168,490
0.6218085047794686,490
0.6226420282443205,491
0.6234755517091723,490
0.6243090751740241,490
0.625142598638876,490
0.6259761221037278,490
0.6268096455685797,490
0.6276431690334314,490
0.6284766924982833,490
0.6293102159631352,490
0.630143739427987,491
0.6309772628928388,492
0.6318107863576906,493
0.6326443098225425,493
0.6334778332873943,493
0.6343113567522461,493
0.635144880217098,493
0.6359784036819498,492
0.6368119271468017,492
0.6376454506116535,491
0.6384789740765053,491
0.6393124975413571,492
0.640146021006209,492
0.6409795444710609,492
0.6418130679359126,492
0.6426465914007645,492
0.6434801148656163,491
0.6443136383304682,492
0.64514716179532,491
0.6459806852601718,491
0.6468142087250237,491
0.6476477321898755,492
0.6484812556547274,493
0.6493147791195791,494
0.650148302584431,494
0.6509818260492828,495
0.6518153495141347,495
0.6526488729789865,494
0.6534823964438383,494
0.6543159199086902,494
0.655149443373542,494
0.6559829668383939,494
0.6568164903032456,494
0.6576500137680975,493
0.6584835372329494,493
0.6593170606978012,493
0.660150584162653,492
0.6609841076275048,492
0.6618176310923567,492
0.6626511545572086,492
0.6634846780220603,493
0.6643182014869122,493
0.665151724951764,493
0.6659852484166159,495
0.6668187718814677,495
0.6676522953463195,498
0.6684858188111714,497
0.6693193422760232,497
0.6701528657408751,497
0.6709863892057268,496
0.6718199126705787,496
0.6726534361354305,495
0.6734869596002824,495
0.6743204830651343,495
0.675154006529986,495
0.6759875299948379,494
0.6768210534596897,493
0.6776545769245416,493
0.6784881003893933,493
0.6793216238542452,493
0.6801551473190971,493
0.6809886707839489,493
0.6818221942488008,494
0.6826557177136525,494
0.6834892411785044,494
0.6843227646433562,496
0.6851562881082081,497
0.6859898115730599,497
0.6868233350379117,497
0.6876568585027636,497
0.6884903819676154,497
0.6893239054324672,496
0.690157428897319,495
0.6909909523621709,496
0.6918244758270228,495
0.6926579992918745,495
0.6934915227567264,494
0.6943250462215782,495
0.6951585696864301,494
0.6959920931512819,493
0.6968256166161337,493
0.6976591400809856,493
0.6984926635458374,494
0.6993261870106893,493
0.700159710475541,494
0.7009932339403929,495
0.7018267574052447,496
0.7026602808700966,496
0.7034938043349485,498
0.7043273277998002,498
0.7051608512646521,498
0.7059943747295039,497
0.7068278981943558,497
0.7076614216592076,496
0.7084949451240594,496
0.7093284685889113,497
0.7101619920537631,496
0.710995515518615,496
0.7118290389834667,495
0.7126625624483186,495
0.7134960859131705,495
0.7143296093780223,495
0.7151631328428741,495
0.7159966563077259,497
0.7168301797725778,496
0.7176637032374296,496
0.7184972267022814,497
0.7193307501671333,498
0.7201642736319851,498
0.720997797096837,498
0.7218313205616887,500
0.7226648440265406,499
0.7234983674913924,499
0.7243318909562443,497
0.7251654144210962,497
0.7259989378859479,496
0.7268324613507998,496
0.7276659848156516,495
0.7284995082805035,496
0.7293330317453552,495
0.7301665552102071,495
0.731000078675059,495
0.7318336021399108,495
0.7326671256047627,496
0.7335006490696144,496
0.7343341725344663,498
0.7351676959993181,498
0.73600121946417,499
0.7368347429290218,500
0.7376682663938736,501
0.7385017898587255,501
0.7393353133235773,501
0.7401688367884292,501
0.7410023602532809,502
0.7418358837181328,500
0.7426694071829847,500
0.7435029306478365,499
0.7443364541126883,500
0.7451699775775401,500
0.746003501042392,499
0.7468370245072438,501
0.7476705479720956,501
0.7485040714369475,501
0.7493375949017993,500
0.7501711183666512,502
0.751004641831503,501
0.7518381652963548,502
0.7526716887612067,503
0.7535052122260585,504
0.7543387356909104,504
0.7551722591557621,505
0.756005782620614,505
0.7568393060854658,505
0.7576728295503177,504
0.7585063530151696,504
0.7593398764800213,505
0.7601733999448732,503
0.761006923409725,503
0.7618404468745769,502
0.7626739703394286,503
0.7635074938042805,502
0.7643410172691324,502
0.7651745407339842,504
0.766008064198836,504
0.7668415876636878,505
0.7676751111285397,505
0.7685086345933915,506
0.7693421580582434,505
0.7701756815230952,505
0.771009204987947,506
0.7718427284527989,506
0.7726762519176507,506
0.7735097753825025,506
0.7743432988473543,507
0.7751768223122062,506
0.7760103457770581,506
0.7768438692419098,505
0.7776773927067617,507
0.7785109161716135,505
0.7793444396364654,505
0.7801779631013172,504
0.781011486566169,505
0.7818450100310209,504
0.7826785334958727,504
0.7835120569607246,505
0.7843455804255763,505
0.7851791038904282,506
0.78601262735528,506
0.7868461508201319,508
0.7876796742849838,507
0.7885131977498355,508
0.7893467212146874,508
0.7901802446795392,507
0.7910137681443911,506
0.7918472916092429,505
0.7926808150740947,506
0.7935143385389466,505
0.7943478620037984,505
0.7951813854686502,504
0.796014908933502,504
0.7968484323983539,503
0.7976819558632058,502
0.7985154793280576,502
0.7993490027929094,502
0.8001825262577612,502
0.8010160497226131,502
0.8018495731874649,505
0.8026830966523167,506
0.8035166201171686,507
0.8043501435820204,507
0.8051836670468723,508
0.806017190511724,507
0.8068507139765759,507
0.8076842374414277,507
0.8085177609062796,507
0.8093512843711315,507
0.8101848078359832,506
0.8110183313008351,506
0.8118518547656869,504
0.8126853782305388,503
0.8135189016953905,503
0.8143524251602424,502
0.8151859486250943,503
0.8160194720899461,503
0.816852995554798,502
0.8176865190196497,503
0.8185200424845016,503
0.8193535659493534,504
0.8201870894142053,505
0.8210206128790571,504
0.8218541363439089,505
0.8226876598087608,506
0.8235211832736126,506
0.8243547067384644,507
0.8251882302033162,506
0.8260217536681681,507
0.82685527713302,506
0.8276888005978718,507
0.8285223240627236,506
0.8293558475275754,507
0.8301893709924273,505
0.8310228944572791,505
0.8318564179221309,506
0.8326899413869828,505
0.8335234648518346,505
0.8343569883166865,505
0.8351905117815382,505
0.8360240352463901,504
0.836857558711242,504
0.8376910821760938,504
0.8385246056409457,505
0.8393581291057974,505
0.8401916525706493,506
0.8410251760355011,505
0.841858699500353,505
0.8426922229652049,504
0.8435257464300566,504
0.8443592698949085,505
0.8451927933597603,503
0.8460263168246122,505
0.8468598402894639,503
0.8476933637543158,505
0.8485268872191677,505
0.8493604106840195,504
0.8501939341488713,505
0.8510274576137231,505
0.851860981078575,506
0.8526945045434268,506
0.8535280280082786,506
0.8543615514731305,506
0.8551950749379823,506
0.8560285984028342,506
0.856862121867686,506
0.8576956453325378,506
0.8585291687973896,507
0.8593626922622415,506
0.8601962157270934,506
0.8610297391919451,505
0.861863262656797,505
0.8626967861216488,506
0.8635303095865007,505
0.8643638330513524,507
0.8651973565162043,506
0.8660308799810562,508
0.866864403445908,507
0.8676979269107599,508
0.8685314503756116,508
0.8693649738404635,508
0.8701984973053153,508
0.8710320207701672,508
0.871865544235019,508
0.8726990676998708,507
0.8735325911647227,508
0.8743661146295745,507
0.8751996380944264,508
0.8760331615592782,506
0.87686668502413,506
0.8777002084889819,506
0.8785337319538337,506
0.8793672554186855,505
0.8802007788835373,505
0.8810343023483892,506
0.8818678258132411,507
0.8827013492780929,507
0.8835348727429447,507
0.8843683962077965,509
0.8852019196726484,509
0.8860354431375002,509
0.886868966602352,509
0.8877024900672039,509
0.8885360135320557,509
0.8893695369969076,508
0.8902030604617593,508
0.8910365839266112,507
0.891870107391463,506
0.8927036308563149,507
0.8935371543211668,507
0.8943706777860185,507
0.8952042012508704,507
0.8960377247157222,506
0.8968712481805741,507
0.8977047716454258,506
0.8985382951102777,508
0.8993718185751296,507
0.9002053420399814,508
0.9010388655048333,508
0.901872388969685,509
0.9027059124345369,510
0.9035394358993887,511
0.9043729593642406,510
0.9052064828290924,511
0.9060400062939442,510
0.9068735297587961,510
0.9077070532236479,509
0.9085405766884997,508
0.9093741001533515,508
0.9102076236182034,507
0.9110411470830553,507
0.911874670547907,506
0.9127081940127589,507
0.9135417174776107,506
0.9143752409424626,506
0.9152087644073144,508
0.9160422878721662,508
0.9168758113370181,509
0.9177093348018699,509
0.9185428582667218,511
0.9193763817315735,511
0.9202099051964254,512
0.9210434286612773,512
0.9218769521261291,513
0.922710475590981,512
0.9235439990558327,511
0.9243775225206846,510
0.9252110459855364,509
0.9260445694503883,509
0.9268780929152401,507
0.9277116163800919,508
0.9285451398449438,507
0.9293786633097956,507
0.9302121867746475,506
0.9310457102394992,507
0.9318792337043511,506
0.932712757169203,506
0.9335462806340548,508
0.9343798040989066,510
0.9352133275637584,511
0.9360468510286103,511
0.9368803744934621,513
0.937713897958314,513
0.9385474214231658,514
0.9393809448880176,513
0.9402144683528695,514
0.9410479918177213,512
0.9418815152825731,511
0.9427150387474249,510
0.9435485622122768,509
0.9443820856771287,508
0.9452156091419804,508
0.9460491326068323,508
0.9468826560716841,508
0.947716179536536,508
0.9485497030013877,509
0.9493832264662396,510
0.9502167499310915,510
0.9510502733959433,511
0.9518837968607952,512
0.9527173203256469,513
0.9535508437904988,514
0.9543843672553506,513
0.9552178907202025,515
0.9560514141850543,514
0.9568849376499061,515
0.957718461114758,515
0.9585519845796098,515
0.9593855080444617,514
0.9602190315093135,513
0.9610525549741653,512
0.9618860784390172,510
0.962719601903869,509
0.9635531253687208,509
0.9643866488335726,509
0.9652201722984245,509
0.9660536957632764,509
0.9668872192281281,510
0.96772074269298,511
0.9685542661578318,511
0.9693877896226837,512
0.9702213130875355,513
0.9710548365523873,514
0.9718883600172392,514
0.972721883482091,513
0.9735554069469429,515
0.9743889304117946,513
0.9752224538766465,514
0.9760559773414983,512
0.9768895008063502,512
0.9777230242712021,511
0.9785565477360538,510
0.9793900712009057,510
0.9802235946657575,509
0.9810571181306094,509
0.9818906415954611,508
0.982724165060313,510
0.9835576885251649,510
0.9843912119900167,511
0.9852247354548685,511
0.9860582589197203,512
0.9868917823845722,512
0.987725305849424,513
0.9885588293142759,513
0.9893923527791277,513
0.9902258762439795,513
0.9910593997088314,513
0.9918929231736832,513
0.992726446638535,513
0.9935599701033868,513
0.9943934935682387,512
0.9952270170330906,513
0.9960605404979423,511
0.9968940639627942,510
0.997727587427646,509
0.9985611108924979,509
0.9993946343573497,509
1.0002281578222016,509
1.0010616812870534,510
1.0018952047519052,511
1.002728728216757,511
1.003562251681609,511
1.0043957751464607,512
1.0052292986113125,513
1.0060628220761645,512
1.0068963455410163,514
1.007729869005868,514
1.0085633924707198,514
1.0093969159355718,513
1.0102304394004236,513
1.0110639628652753,512
1.0118974863301273,512
1.012731009794979,511
1.0135645332598309,511
1.0143980567246826,510
1.0152315801895346,511
1.0160651036543864,511
1.0168986271192382,511
1.0177321505840902,511
1.018565674048942,512
1.0193991975137937,513
1.0202327209786455,513
1.0210662444434975,514
1.0218997679083492,513
1.022733291373201,513
1.023566814838053,513
1.0244003383029048,512
1.0252338617677565,513
1.0260673852326083,513
1.0269009086974603,512
1.027734432162312,513
1.0285679556271639,512
1.0294014790920158,513
1.0302350025568676,512
1.0310685260217194,512
1.0319020494865712,512
1.0327355729514232,512
1.033569096416275,512
1.0344026198811267,511
1.0352361433459787,512
1.0360696668108305,512
1.0369031902756822,513
1.037736713740534,513
1.038570237205386,513
1.0394037606702378,514
1.0402372841350895,513
1.0410708075999415,513
1.0419043310647933,513
1.042737854529645,514
1.0435713779944968,512
1.0444049014593488,513
1.0452384249242006,512
1.0460719483890524,513
1.0469054718539044,513
1.0477389953187561,513
1.048572518783608,513
1.0494060422484597,513
1.0502395657133117,513
1.0510730891781634,512
1.0519066126430152,512
1.0527401361078672,512
1.053573659572719,512
1.0544071830375707,513
1.0552407065024225,513
1.0560742299672745,513
1.0569077534321263,514
1.057741276896978,514
1.05857480036183,514
1.0594083238266818,513
1.0602418472915336,513
1.0610753707563854,512
1.0619088942212374,512
1.0627424176860891,512
1.063575941150941,513
1.0644094646157929,513
1.0652429880806447,514
1.0660765115454964,515
1.0669100350103484,517
1.0677435584752002,516
1.068577081940052,516
1.0694106054049037,515
1.0702441288697557,515
1.0710776523346075,516
1.0719111757994593,515
1.0727446992643113,514
1.073578222729163,515
1.0744117461940148,514
1.0752452696588666,515
1.0760787931237186,513
1.0769123165885703,514
1.077745840053422,513
1.078579363518274,514
1.0794128869831259,514
1.0802464104479776,514
1.0810799339128294,513
1.0819134573776814,514
1.0827469808425332,514
1.083580504307385,516
1.084414027772237,516
1.0852475512370887,516
1.0860810747019405,516
1.0869145981667923,517
1.0877481216316442,517
1.088581645096496,517
1.0894151685613478,516
1.0902486920261998,516
1.0910822154910516,516
1.0919157389559033,515
1.092749262420755,515
1.093582785885607,515
1.0944163093504589,515
1.0952498328153106,514
1.0960833562801626,514
1.0969168797450144,515
1.0977504032098662,515
1.098583926674718,514
1.09941745013957,515
1.1002509736044217,516
1.1010844970692735,519
1.1019180205341255,518
1.1027515439989772,520
1.103585067463829,520
1.1044185909286808,522
1.1052521143935328,521
1.1060856378583845,520
1.1069191613232363,519
1.1077526847880883,519
1.10858620825294,519
1.1094197317177918,518
1.1102532551826436,517
1.1110867786474956,518
1.1119203021123474,517
1.1127538255771992,517
1.1135873490420511,516
1.114420872506903,518
1.1152543959717547,518
1.1160879194366065,519
1.1169214429014584,520
1.1177549663663102,522
1.118588489831162,522
1.119422013296014,523
1.1202555367608658,524
1.1210890602257175,525
1.1219225836905693,525
1.1227561071554213,524
1.123589630620273,524
1.1244231540851248,523
1.1252566775499768,522
1.1260902010148286,522
1.1269237244796804,521
1.1277572479445321,520
1.1285907714093841,520
1.129424294874236,520
1.1302578183390877,519
1.1310913418039397,519
1.1319248652687914,520
1.1327583887336432,520
1.133591912198495,520
1.134425435663347,521
1.1352589591281987,522
1.1360924825930505,522
1.1369260060579025,524
1.1377595295227543,524
1.138593052987606,526
1.1394265764524578,525
1.1402600999173098,525
1.1410936233821616,523
1.1419271468470134,522
1.1427606703118653,520
1.1435941937767171,519
1.1444277172415689,518
1.1452612407064207,518
1.1460947641712727,517
1.1469282876361244,517
1.1477618111009762,517
1.1485953345658282,517
1.14942885803068,519
1.1502623814955317,519
1.1510959049603835,521
1.1519294284252355,522
1.1527629518900873,524
1.153596475354939,524
1.154429998819791,525
1.1552635222846428,525
1.1560970457494946,526
1.1569305692143466,524
1.1577640926791983,525
1.15859761614405,524
1.1594311396089019,525
1.1602646630737539,523
1.1610981865386056,522
1.1619317100034574,522
1.1627652334683094,521
1.1635987569331612,522
1.164432280398013,522
1.1652658038628647,524
1.1660993273277167,525
1.1669328507925685,526
1.1677663742574202,526
1.1685998977222722,527
1.169433421187124,527
1.1702669446519758,530
1.1711004681168276,529
1.1719339915816795,529
1.1727675150465313,530
1.173601038511383,531
1.174434561976235,532
1.1752680854410869,530
1.1761016089059386,531
1.1769351323707904,529
1.1777686558356424,529
1.1786021793004942,528
1.179435702765346,527
1.180269226230198,526
1.1811027496950497,526
1.1819362731599015,526
1.1827697966247532,526
1.1836033200896052,526
1.184436843554457,527
1.1852703670193088,529
1.1861038904841608,527
1.1869374139490125,528
1.1877709374138643,528
1.188604460878716,531
1.189437984343568,530
1.1902715078084198,528
1.1911050312732716,528
1.1919385547381236,529
1.1927720782029754,530
1.1936056016678271,528
1.194439125132679,528
1.195272648597531,527
1.1961061720623827,527
1.1969396955272344,526
1.1977732189920864,526
1.1986067424569382,526
1.19944026592179,525
1.2002737893866418,526
1.2011073128514937,526
1.2019408363163455,526
1.2027743597811973,526
1.2036078832460493,527
1.204441406710901,528
1.2052749301757528,528
1.2061084536406046,527
1.2069419771054566,527
1.2077755005703084,528
1.2086090240351601,529
1.2094425475000121,528
1.210276070964864,526
1.2111095944297157,526
1.2119431178945674,526
1.2127766413594194,527
1.2136101648242712,526
1.214443688289123,525
1.215277211753975,525
1.2161107352188267,526
1.2169442586836785,526
1.2177777821485303,525
1.2186113056133823,525
1.219444829078234,526
1.2202783525430858,527
1.2211118760079378,527
1.2219453994727896,527
1.2227789229376413,527
1.2236124464024931,528
1.224445969867345,529
1.2252794933321969,529
1.2261130167970486,528
1.2269465402619006,527
1.2277800637267524,528
1.2286135871916042,530
1.229447110656456,528
1.230280634121308,527
1.2311141575861597,528
1.2319476810510115,529
1.2327812045158635,529
1.2336147279807153,528
1.234448251445567,528
1.2352817749104188,528
1.2361152983752708,528
1.2369488218401226,528
1.2377823453049743,529
1.2386158687698263,529
1.239449392234678,531
1.2402829156995299,531
1.2411164391643819,530
1.2419499626292336,529
1.2427834860940854,529
1.2436170095589372,529
1.2444505330237892,529
1.245284056488641,527
1.2461175799534927,527
1.2469511034183447,529
1.2477846268831965,530
1.2486181503480482,529
1.2494516738129,529
1.250285197277752,529
1.2511187207426038,530
1.2519522442074555,529
1.2527857676723075,529
1.2536192911371593,528
1.254452814602011,529
1.2552863380668629,529
1.2561198615317148,529
1.2569533849965666,529
1.2577869084614184,530
1.2586204319262704,530
1.2594539553911221,530
1.260287478855974,528
1.2611210023208257,528
1.2619545257856777,528
1.2627880492505295,529
1.2636215727153812,528
1.2644550961802332,528
1.265288619645085,529
1.2661221431099368,530
1.2669556665747885,531
1.2677891900396405,530
1.2686227135044923,530
1.269456236969344,529
1.270289760434196,530
1.2711232838990478,529
1.2719568073638996,529
1.2727903308287514,529
1.2736238542936034,529
1.2744573777584551,529
1.275290901223307,529
1.276124424688159,529
1.2769579481530107,528
1.2777914716178624,529
1.2786249950827142,528
1.2794585185475662,527
1.280292042012418,528
1.2811255654772697,529
1.2819590889421217,529
1.2827926124069735,529
1.2836261358718253,530
1.284459659336677,531
1.285293182801529,534
1.2861267062663808,533
1.2869602297312326,533
1.2877937531960846,533
1.2886272766609363,532
1.2894608001257881,531
1.29029432359064,530
1.2911278470554919,529
1.2919613705203437,529
1.2927948939851954,530
1.2936284174500474,529
1.2944619409148992,528
1.295295464379751,528
1.2961289878446027,528
1.2969625113094547,528
1.2977960347743065,528
1.2986295582391583,529
1.2994630817040103,530
1.300296605168862,532
1.3011301286337138,531
1.3019636520985656,531
1.3027971755634176,531
1.3036306990282693,532
1.304464222493121,532
1.305297745957973,531
1.3061312694228249,531
1.3069647928876766,530
1.3077983163525284,529
1.3086318398173804,528
1.3094653632822322,527
1.310298886747084,527
1.311132410211936,527
1.3119659336767877,527
1.3127994571416395,527
1.3136329806064913,527
1.3144665040713432,527
1.315300027536195,529
1.3161335510010468,529
1.3169670744658988,528
1.3178005979307506,529
1.3186341213956023,531
1.319467644860454,533
1.320301168325306,532
1.3211346917901579,531
1.3219682152550096,532
1.3228017387198616,533
1.3236352621847134,532
1.3244687856495652,530
1.3253023091144172,529
1.326135832579269,528
1.3269693560441207,527
1.3278028795089725,526
1.3286364029738245,526
1.3294699264386762,526
1.330303449903528,528
1.33113697336838,527
1.3319704968332318,527
1.3328040202980835,527
1.3336375437629353,529
1.3344710672277873,531
1.335304590692639,530
1.3361381141574908,530
1.3369716376223428,531
1.3378051610871946,532
1.3386386845520464,532
1.3394722080168981,530
1.3403057314817501,529
1.341139254946602,529
1.3419727784114537,528
1.3428063018763057,527
1.3436398253411574,525
1.3444733488060092,525
1.345306872270861,524
1.346140395735713,524
1.3469739192005648,523
1.3478074426654165,523
1.3486409661302685,524
1.3494744895951203,524
1.350308013059972,524
1.3511415365248238,525
1.3519750599896758,526
1.3528085834545276,527
1.3536421069193794,528
1.3544756303842314,528
1.3553091538490831,529
1.356142677313935,530
1.3569762007787867,531
1.3578097242436387,529
1.3586432477084904,528
1.3594767711733422,526
1.3603102946381942,526
1.361143818103046,525
1.3619773415678977,524
1.3628108650327495,524
1.3636443884976015,523
1.3644779119624533,523
1.365311435427305,523
1.366144958892157,523
1.3669784823570088,524
1.3678120058218606,525
1.3686455292867123,526
1.3694790527515643,526
1.3703125762164161,527
1.3711460996812679,527
1.3719796231461199,529
1.3728131466109716,529
1.3736466700758234,529
1.3744801935406752,528
1.3753137170055272,529
1.376147240470379,528
1.3769807639352307,528
1.3778142874000827,527
1.3786478108649345,526
1.3794813343297863,525
1.380314857794638,525
1.38114838125949,525
1.3819819047243418,525
1.3828154281891936,525
1.3836489516540456,525
1.3844824751188973,527
1.385315998583749,528
1.3861495220486009,528
1.3869830455134529,528
1.3878165689783046,528
1.3886500924431564,530
1.3894836159080084,529
1.3903171393728602,529
1.391150662837712,529
1.3919841863025637,529
1.3928177097674157,529
1.3936512332322675,528
1.3944847566971192,528
1.3953182801619712,527
1.396151803626823,527
1.3969853270916748,526
1.3978188505565265,526
1.3986523740213785,527
1.3994858974862303,526
1.400319420951082,526
1.401152944415934,527
1.4019864678807858,526
1.4028199913456376,527
1.4036535148104894,527
1.4044870382753414,527
1.4053205617401932,527
1.406154085205045,528
1.406987608669897,528
1.4078211321347487,528
1.4086546555996005,528
1.4094881790644525,528
1.4103217025293042,527
1.411155225994156,527
1.4119887494590078,527
1.4128222729238598,527
1.4136557963887115,526
1.4144893198535633,526
1.4153228433184153,526
1.416156366783267,525
1.4169898902481188,524
1.4178234137129706,524
1.4186569371778226,524
1.4194904606426744,525
1.4203239841075261,527
1.4211575075723781,527
1.42199103103723,527
1.4228245545020817,527
1.4236580779669334,527
1.4244916014317854,526
1.4253251248966372,525
1.426158648361489,526
1.426992171826341,526
1.4278256952911927,525
1.4286592187560445,525
1.4294927422208963,525
1.4303262656857483,525
1.4311597891506,524
1.4319933126154518,525
1.4328268360803038,525
1.4336603595451556,525
1.4344938830100074,525
1.4353274064748591,525
1.4361609299397111,525
1.4369944534045629,525
1.4378279768694147,526
1.4386615003342667,525
1.4394950237991184,525
1.4403285472639702,525
1.441162070728822,525
1.441995594193674,525
1.4428291176585257,525
1.4436626411233775,524
1.4444961645882295,524
1.4453296880530813,524
1.446163211517933,524
1.4469967349827848,524
1.4478302584476368,524
1.4486637819124886,524
1.4494973053773403,524
1.4503308288421923,524
1.451164352307044,525
1.4519978757718959,524
1.4528313992367476,525
1.4536649227015996,524
1.4544984461664514,525
1.4553319696313032,525
1.4561654930961552,524
1.456999016561007,524
1.4578325400258587,523
1.4586660634907105,522
1.4594995869555625,522
1.4603331104204142,522
1.461166633885266,522
1.462000157350118,522
1.4628336808149698,522
1.4636672042798216,522
1.4645007277446733,522
1.4653342512095253,522
1.466167774674377,523
1.4670012981392289,523
1.4678348216040809,524
1.4686683450689326,523
1.4695018685337844,523
1.4703353919986362,522
1.4711689154634882,522
1.47200243892834,522
1.4728359623931917,521
1.4736694858580437,521
1.4745030093228955,520
1.4753365327877472,520
1.476170056252599,519
1.477003579717451,518
1.4778371031823028,519
1.4786706266471545,519
1.4795041501120065,519
1.4803376735768583,519
1.48117119704171,519
1.4820047205065618,519
1.4828382439714138,520
1.4836717674362656,520
1.4845052909011174,520
1.4853388143659694,521
1.4861723378308211,520
1.487005861295673,520
1.4878393847605247,520
1.4886729082253767,520
1.4895064316902284,519
1.4903399551550802,519
1.4911734786199322,518
1.492007002084784,518
1.4928405255496358,517
1.4936740490144875,517
1.4945075724793395,517
1.4953410959441913,516
1.496174619409043,516
1.497008142873895,515
1.4978416663387468,515
1.4986751898035986,516
1.4995087132684506,516
1.5003422367333024,516
1.5011757601981541,517
1.502009283663006,517
1.502842807127858,517
1.5036763305927097,517
1.5045098540575614,517
1.5053433775224134,517
1.5061769009872652,517
1.507010424452117,516
1.5078439479169687,516
1.5086774713818207,515
1.5095109948466725,515
1.5103445183115243,513
1.5111780417763763,512
1.512011565241228,512
1.5128450887060798,512
1.5136786121709316,511
1.5145121356357836,512
1.5153456591006353,512
1.5161791825654871,512
1.517012706030339,512
1.5178462294951909,513
1.5186797529600427,513
1.5195132764248944,513
1.5203467998897464,514
1.5211803233545982,514
1.52201384681945,514
1.522847370284302,513
1.5236808937491537,513
1.5245144172140055,512
1.5253479406788573,512
1.5261814641437093,511
1.527014987608561,511
1.5278485110734128,511
1.5286820345382648,510
1.5295155580031166,510
1.5303490814679683,510
1.53118260493282,511
1.532016128397672,511
1.5328496518625239,512
1.5336831753273756,512
1.5345166987922276,512
1.5353502222570794,513
1.5361837457219312,514
1.537017269186783,514
1.537850792651635,514
1.5386843161164867,515
1.5395178395813385,515
1.5403513630461905,515
1.5411848865110422,515
1.542018409975894,513
1.5428519334407458,513
1.5436854569055978,513
1.5445189803704495,512
1.5453525038353013,511
1.5461860273001533,511
1.547019550765005,510
1.5478530742298569,510
1.5486865976947086,511
1.5495201211595606,511
1.5503536446244124,513
1.5511871680892642,513
1.5520206915541161,513
1.552854215018968,514
1.5536877384838197,514
1.5545212619486715,515
1.5553547854135235,515
1.5561883088783752,515
1.557021832343227,514
1.557855355808079,514
1.5586888792729308,513
1.5595224027377825,513
1.5603559262026343,512
1.5611894496674863,511
1.562022973132338,511
1.5628564965971898,510
1.5636900200620418,510
1.5645235435268936,510
1.5653570669917454,510
1.5661905904565971,512
1.5670241139214491,512
1.567857637386301,512
1.5686911608511527,513
1.5695246843160047,514
1.5703582077808564,514
1.5711917312457082,514
1.57202525471056,514
1.572858778175412,514
1.5736923016402637,514
1.5745258251051155,514
1.5753593485699675,513
1.5761928720348193,513
1.577026395499671,513
1.5778599189645228,512
1.5786934424293748,512
1.5795269658942266,511
1.5803604893590784,511
1.5811940128239304,511
1.5820275362887821,511
1.582861059753634,511
1.5836945832184859,512
1.5845281066833377,512
1.5853616301481894,513
1.5861951536130412,513
1.5870286770778932,513
1.587862200542745,513
1.5886957240075967,513
1.5895292474724487,513
1.5903627709373005,513
1.5911962944021523,512
1.592029817867004,512
1.592863341331856,511
1.5936968647967078,511
1.5945303882615596,511
1.5953639117264116,511
1.5961974351912633,511
1.597030958656115,511
1.5978644821209669,511
1.5986980055858189,511
1.5995315290506706,511
1.6003650525155224,511
1.6011985759803744,512
1.6020320994452262,512
1.602865622910078,513
1.6036991463749297,513
1.6045326698397817,512
1.6053661933046335,513
1.6061997167694853,512
1.6070332402343372,512
1.607866763699189,511
1.6087002871640408,511
1.6095338106288926,511
1.6103673340937446,510
1.6112008575585963,510
1.612034381023448,510
1.6128679044883,511
1.6137014279531519,511
1.6145349514180036,511
1.6153684748828554,511
1.6162019983477074,511
1.6170355218125592,511
1.617869045277411,512
1.618702568742263,512
1.6195360922071147,513
1.6203696156719665,513
1.6212031391368182,513
1.6220366626016702,513
1.622870186066522,513
1.6237037095313738,513
1.6245372329962258,513
1.6253707564610775,513
1.6262042799259293,513
1.627037803390781,512
1.627871326855633,512
1.6287048503204848,511
1.6295383737853366,511
1.6303718972501886,511
1.6312054207150404,511
1.6320389441798921,511
1.632872467644744,511
1.633705991109596,511
1.6345395145744477,511
1.6353730380392995,511
1.6362065615041514,512
1.6370400849690032,512
1.637873608433855,512
1.6387071318987068,513
1.6395406553635588,513
1.6403741788284105,513
1.6412077022932623,513
1.6420412257581143,511
1.642874749222966,511
1.6437082726878178,511
1.6445417961526696,510
1.6453753196175216,510
1.6462088430823734,509
1.6470423665472251,509
1.6478758900120771,509
1.648709413476929,509
1.6495429369417807,509
1.6503764604066324,508
1.6512099838714844,508
1.6520435073363362,508
1.652877030801188,509
1.65371055426604,509
1.6545440777308917,510
1.6553776011957435,511
1.6562111246605953,513
1.6570446481254473,512
1.657878171590299,510
1.6587116950551508,511
1.6595452185200028,512
1.6603787419848546,511
1.6612122654497063,511
1.6620457889145581,512
1.6628793123794101,512
1.6637128358442619,511
1.6645463593091137,510
1.6653798827739656,510
1.6662134062388174,510
1.6670469297036692,509
1.6678804531685212,508
1.668713976633373,508
1.6695475000982247,508
1.6703810235630765,508
1.6712145470279285,508
1.6720480704927803,508
1.672881593957632,508
1.673715117422484,508
1.6745486408873358,510
1.6753821643521876,508
1.6762156878170393,510
1.6770492112818913,510
1.677882734746743,510
1.6787162582115949,510
1.6795497816764469,510
1.6803833051412986,511
1.6812168286061504,510
1.6820503520710022,511
1.6828838755358542,511
1.683717399000706,510
1.6845509224655577,509
1.6853844459304097,509
1.6862179693952615,508
1.6870514928601132,508
1.687885016324965,509
1.688718539789817,508
1.6895520632546688,508
1.6903855867195205,507
1.6912191101843725,508
1.6920526336492243,508
1.692886157114076,508
1.6937196805789279,508
1.6945532040437798,508
1.6953867275086316,509
1.6962202509734834,508
1.6970537744383354,510
1.6978872979031872,510
1.698720821368039,510
1.6995543448328907,510
1.7003878682977427,509
1.7012213917625945,510
1.7020549152274462,509
1.7028884386922982,508
1.70372196215715,508
1.7045554856220018,508
1.7053890090868535,508
1.7062225325517055,508
1.7070560560165573,508
1.707889579481409,508
1.708723102946261,508
1.7095566264111128,508
1.7103901498759646,509
1.7112236733408164,508
1.7120571968056684,509
1.7128907202705201,509
1.713724243735372,508
1.714557767200224,509
1.7153912906650757,509
1.7162248141299274,510
1.7170583375947792,510
1.7178918610596312,511
1.718725384524483,512
1.7195589079893348,512
1.7203924314541867,511
1.7212259549190385,511
1.7220594783838903,512
1.722893001848742,511
1.723726525313594,511
1.7245600487784458,510
1.7253935722432976,509
1.7262270957081496,508
1.7270606191730014,508
1.7278941426378531,508
1.728727666102705,507
1.729561189567557,508
1.7303947130324087,508
1.7312282364972604,509
1.7320617599621124,508
1.7328952834269642,509
1.733728806891816,511
1.7345623303566677,511
1.7353958538215197,511
1.7362293772863715,511
1.7370629007512233,513
1.7378964242160753,512
1.738729947680927,512
1.7395634711457788,511
1.7403969946106306,510
1.7412305180754826,509
1.7420640415403343,509
1.7428975650051861,509
1.743731088470038,507
1.7445646119348899,507
1.7453981353997416,507
1.7462316588645934,508
1.7470651823294454,507
1.7478987057942972,508
1.748732229259149,510
1.749565752724001,510
1.7503992761888527,509
1.7512327996537045,511
1.7520663231185565,512
1.7528998465834082,512
1.75373337004826,513
1.7545668935131118,512
1.7554004169779638,512
1.7562339404428156,511
1.7570674639076673,512
1.7579009873725193,512
1.758734510837371,511
1.7595680343022229,510
1.7604015577670746,509
1.7612350812319266,509
1.7620686046967784,509
1.7629021281616302,509
1.7637356516264822,509
1.764569175091334,510
1.7654026985561857,510
1.7662362220210375,510
1.7670697454858895,511
1.7679032689507412,510
1.768736792415593,512
1.769570315880445,512
1.7704038393452968,514
1.7712373628101485,514
1.7720708862750003,514
1.7729044097398523,515
1.773737933204704,514
1.7745714566695558,513
1.7754049801344078,512
1.7762385035992596,512
1.7770720270641114,511
1.7779055505289632,511
1.7787390739938151,510
1.779572597458667,509
1.7804061209235187,509
1.7812396443883707,509
1.7820731678532225,510
1.7829066913180742,510
1.783740214782926,511
1.784573738247778,511
1.7854072617126298,512
1.7862407851774815,512
1.7870743086423335,513
1.7879078321071853,514
1.788741355572037,514
1.7895748790368888,513
1.7904084025017408,514
1.7912419259665926,515
1.7920754494314444,514
1.7929089728962964,513
1.7937424963611481,512
1.794576019826,512
1.7954095432908517,511
1.7962430667557037,511
1.7970765902205554,512
1.7979101136854072,511
1.7987436371502592,511
1.799577160615111,511
1.8004106840799627,512
1.8012442075448145,512
1.8020777310096665,512
1.8029112544745183,514
1.80374477793937,514
1.804578301404222,513
1.8054118248690738,514
1.8062453483339256,515
1.8070788717987774,514
1.8079123952636293,515
1.8087459187284811,515
1.8095794421933329,515
1.8104129656581849,513
1.8112464891230367,513
1.8120800125878884,512
1.8129135360527402,511
1.8137470595175922,511
1.814580582982444,511
1.8154141064472957,510
1.8162476299121477,510
1.8170811533769995,511
1.8179146768418513,513
1.818748200306703,512
1.819581723771555,513
1.8204152472364068,512
1.8212487707012586,514
1.8220822941661106,513
1.8229158176309623,514
1.823749341095814,515
1.8245828645606659,515
1.8254163880255179,513
1.8262499114903696,513
1.8270834349552214,513
1.8279169584200734,512
1.8287504818849252,512
1.829584005349777,512
1.8304175288146287,511
1.8312510522794807,510
1.8320845757443325,510
1.8329180992091842,510
1.8337516226740362,510
1.834585146138888,510
1.8354186696037398,510
1.8362521930685918,512
1.8370857165334435,511
1.8379192399982953,512
1.838752763463147,512
1.839586286927999,512
1.8404198103928509,511
1.8412533338577026,512
1.8420868573225546,514
1.8429203807874064,512
1.8437539042522582,513
1.84458742771711,513
1.845420951181962,513
1.8462544746468137,511
1.8470879981116655,511
1.8479215215765175,512
1.8487550450413692,511
1.849588568506221,511
1.8504220919710728,510
1.8512556154359248,511
1.8520891389007765,511
1.8529226623656283,511
1.8537561858304803,512
1.854589709295332,512
1.8554232327601838,512
1.8562567562250356,512
1.8570902796898876,512
1.8579238031547394,512
1.8587573266195911,512
1.8595908500844431,512
1.860424373549295,512
1.8612578970141467,512
1.8620914204789984,512
1.8629249439438504,513
1.8637584674087022,513
1.864591990873554,512
1.865425514338406,511
1.8662590378032577,512
1.8670925612681095,511
1.8679260847329613,512
1.8687596081978133,512
1.869593131662665,511
1.8704266551275168,511
1.8712601785923688,511
1.8720937020572206,511
1.8729272255220724,511
1.8737607489869241,510
1.8745942724517761,511
1.875427795916628,512
1.8762613193814797,510
1.8770948428463317,511
1.8779283663111834,512
1.8787618897760352,513
1.879595413240887,511
1.880428936705739,512
1.8812624601705907,513
1.8820959836354425,512
1.8829295071002945,512
1.8837630305651463,512
1.884596554029998,512
1.8854300774948498,511
1.8862636009597018,511
1.8870971244245536,511
1.8879306478894053,511
1.8887641713542573,511
1.889597694819109,511
1.8904312182839609,512
1.8912647417488127,511
1.8920982652136646,510
1.8929317886785164,511
1.8937653121433682,512
1.8945988356082202,511
1.895432359073072,510
1.8962658825379237,511
1.8970994060027755,512
1.8979329294676275,511
1.8987664529324793,512
1.899599976397331,512
1.900433499862183,512
1.9012670233270348,512
1.9021005467918866,513
1.9029340702567383,512
1.9037675937215903,512
1.904601117186442,511
1.9054346406512939,512
1.9062681641161459,512
1.9071016875809976,511
1.9079352110458494,512
1.9087687345107012,511
1.9096022579755532,511
1.910435781440405,511
1.9112693049052567,511
1.9121028283701087,510
1.9129363518349605,511
1.9137698752998122,510
1.914603398764664,511
1.915436922229516,511
1.9162704456943678,512
1.9171039691592195,512
1.9179374926240715,512
1.9187710160889233,512
1.919604539553775,511
1.920438063018627,512
1.9212715864834788,511
1.9221051099483306,511
1.9229386334131824,511
1.9237721568780344,510
1.9246056803428861,509
1.925439203807738,509
1.92627272727259,509
1.9271062507374417,509
1.9279397742022935,510
1.9287732976671452,510
1.9296068211319972,509
1.930440344596849,509
1.9312738680617008,510
1.9321073915265528,509
1.9329409149914045,510
1.9337744384562563,510
1.934607961921108,512
1.93544148538596,511
1.9362750088508118,512
1.9371085323156636,513
1.9379420557805156,512
1.9387755792453674,512
1.9396091027102191,512
1.940442626175071,512
1.941276149639923,511
1.9421096731047747,510
1.9429431965696264,509
1.9437767200344784,509
1.9446102434993302,508
1.945443766964182,509
1.9462772904290337,509
1.9471108138938857,509
1.9479443373587375,509
1.9487778608235893,510
1.9496113842884413,511
1.950444907753293,510
1.9512784312181448,512
1.9521119546829966,513
1.9529454781478486,514
1.9537790016127004,513
1.9546125250775521,514
1.9554460485424041,514
1.9562795720072559,513
1.9571130954721077,512
1.9579466189369594,512
1.9587801424018114,511
1.9596136658666632,510
1.960447189331515,510
1.961280712796367,509
1.9621142362612187,509
1.9629477597260705,508
1.9637812831909223,509
1.9646148066557743,510
1.965448330120626,509
1.9662818535854778,509
1.9671153770503298,510
1.9679489005151816,511
1.9687824239800333,511
1.969615947444885,512
1.970449470909737,513
1.9712829943745889,513
1.9721165178394406,512
1.9729500413042926,514
1.9737835647691444,513
1.9746170882339962,512
1.975450611698848,511
1.9762841351637,510
1.9771176586285517,510
1.9779511820934035,509
1.9787847055582555,509
1.9796182290231072,508
1.980451752487959,508
1.9812852759528108,508
1.9821187994176628,508
1.9829523228825146,509
1.9837858463473663,509
1.9846193698122183,509
1.98545289327707,509
1.9862864167419219,511
1.9871199402067736,511
1.9879534636716256,511
1.9887869871364774,512
1.9896205106013292,512
1.9904540340661812,511
1.991287557531033,511
1.9921210809958847,511
1.9929546044607365,510
1.9937881279255885,510
1.9946216513904402,509
1.995455174855292,508
1.996288698320144,507
1.9971222217849958,507
1.9979557452498475,508
1.9987892687146993,507
1.9996227921795513,508
2.0004563156444033,507
2.001289839109255,509
2.002123362574107,509
2.0029568860389584,509
2.0037904095038104,511
2.0046239329686624,511
2.005457456433514,512
2.006290979898366,511
2.007124503363218,512
2.0079580268280695,511
2.0087915502929214,512
2.0096250737577734,512
2.010458597222625,511
2.011292120687477,510
2.012125644152329,509
2.0129591676171805,510
2.0137926910820325,508
2.014626214546884,509
2.015459738011736,509
2.016293261476588,509
2.0171267849414396,509
2.0179603084062916,510
2.0187938318711436,511
2.019627355335995,511
2.020460878800847,511
2.021294402265699,512
2.0221279257305507,513
2.0229614491954027,512
2.0237949726602547,513
2.024628496125106,512
2.025462019589958,512
2.0262955430548097,511
2.0271290665196617,511
2.0279625899845137,512
2.0287961134493653,510
2.0296296369142173,509
2.0304631603790693,508
2.031296683843921,508
2.032130207308773,507
2.032963730773625,508
2.0337972542384763,508
2.0346307777033283,508
2.0354643011681803,507
2.036297824633032,508
2.037131348097884,509
2.0379648715627354,509
2.0387983950275874,510
2.0396319184924394,510
2.040465441957291,511
2.041298965422143,510
2.042132488886995,510
2.0429660123518465,511
2.0437995358166985,510
2.0446330592815505,510
2.045466582746402,510
2.046300106211254,511
2.047133629676106,509
2.0479671531409576,509
2.0488006766058096,509
2.0496342000706615,508
2.050467723535513,508
2.051301247000365,508
2.0521347704652166,508
2.0529682939300686,508
2.0538018173949206,509
2.054635340859772,509
2.055468864324624,510
2.056302387789476,509
2.0571359112543277,510
2.0579694347191797,510
2.0588029581840317,510
2.0596364816488832,509
2.0604700051137352,509
2.0613035285785872,510
2.062137052043439,509
2.0629705755082908,509
2.0638040989731423,509
2.0646376224379943,509
2.0654711459028463,508
2.066304669367698,509
2.06713819283255,510
2.067971716297402,509
2.0688052397622534,510
2.0696387632271054,510
2.0704722866919574,510
2.071305810156809,510
2.072139333621661,510
2.072972857086513,510
2.0738063805513645,511
2.0746399040162165,510
2.075473427481068,511
2.07630695094592,510
2.077140474410772,509
2.0779739978756235,509
2.0788075213404755,509
2.0796410448053275,511
2.080474568270179,510
2.081308091735031,510
2.082141615199883,509
2.0829751386647346,510
2.0838086621295866,510
2.0846421855944386,510
2.08547570905929,509
2.086309232524142,510
2.0871427559889937,510
2.0879762794538457,509
2.0888098029186977,509
2.089643326383549,509
2.090476849848401,508
2.091310373313253,508
2.0921438967781048,509
2.0929774202429567,509
2.0938109437078087,508
2.0946444671726603,508
2.0954779906375123,508
2.0963115141023643,508
2.097145037567216,510
2.097978561032068,510
2.0988120844969194,510
2.0996456079617714,510
2.1004791314266233,510
2.101312654891475,510
2.102146178356327,509
2.102979701821179,509
2.1038132252860304,508
2.1046467487508824,508
2.1054802722157344,506
2.106313795680586,506
2.107147319145438,505
2.10798084261029,504
2.1088143660751415,504
2.1096478895399935,503
2.110481413004845,504
2.111314936469697,503
2.112148459934549,503
2.1129819833994006,503
2.1138155068642526,503
2.1146490303291046,503
2.115482553793956,504
2.116316077258808,505
2.11714960072366,505
2.1179831241885116,506
2.1188166476533636,506
2.1196501711182156,507
2.120483694583067,506
2.121317218047919,506
2.1221507415127707,505
2.1229842649776227,505
2.1238177884424747,504
2.1246513119073263,504
2.1254848353721782,503
2.1263183588370302,503
2.127151882301882,502
2.127985405766734,503
2.1288189292315858,503
2.1296524526964373,503
2.1304859761612893,504
2.1313194996261413,504
2.132153023090993,505
2.132986546555845,505
2.133820070020697,506
2.1346535934855484,507
2.1354871169504004,507
2.136320640415252,507
2.137154163880104,507
2.137987687344956,508
2.1388212108098075,507
2.1396547342746595,507
2.1404882577395115,506
2.141321781204363,505
2.142155304669215,504
2.142988828134067,504
2.1438223515989185,504
2.1446558750637705,503
2.1454893985286225,503
2.146322921993474,503
2.147156445458326,504
2.1479899689231776,504
2.1488234923880296,505
2.1496570158528816,506
2.150490539317733,507
2.151324062782585,507
2.152157586247437,506
2.1529911097122887,508
2.1538246331771407,508
2.1546581566419927,508
2.155491680106844,509
2.156325203571696,508
2.157158727036548,507
2.1579922505013998,507
2.1588257739662517,507
2.1596592974311033,506
2.1604928208959553,506
2.1613263443608073,505
2.162159867825659,505
2.162993391290511,504
2.163826914755363,503
2.1646604382202144,504
2.1654939616850664,504
2.1663274851499184,505
2.16716100861477,505
2.167994532079622,507
2.168828055544474,507
2.1696615790093254,508
2.1704951024741774,509
2.171328625939029,509
2.172162149403881,509
2.172995672868733,509
2.1738291963335845,510
2.1746627197984365,508
2.1754962432632885,507
2.17632976672814,506
2.177163290192992,506
2.177996813657844,505
2.1788303371226956,505
2.1796638605875476,506
2.1804973840523996,505
2.181330907517251,505
2.182164430982103,506
2.1829979544469547,506
2.1838314779118067,506
2.1846650013766586,507
2.18549852484151,509
2.186332048306362,509
2.187165571771214,509
2.1879990952360657,509
2.1888326187009177,510
2.1896661421657697,509
2.1904996656306213,510
2.1913331890954733,511
2.1921667125603252,510
2.193000236025177,509
2.193833759490029,507
2.1946672829548803,508
2.1955008064197323,507
2.1963343298845843,507
2.197167853349436,507
2.198001376814288,507
2.19883490027914,507
2.1996684237439914,507
2.2005019472088434,508
2.2013354706736954,508
2.202168994138547,509
2.203002517603399,510
2.203836041068251,511
2.2046695645331025,511
2.2055030879979545,511
2.206336611462806,512
2.207170134927658,512
2.20800365839251,511
2.2088371818573616,511
2.2096707053222135,512
2.2105042287870655,510
2.211337752251917,510
2.212171275716769,510
2.213004799181621,509
2.2138383226464726,508
2.2146718461113246,509
2.2155053695761766,508
2.216338893041028,508
2.21717241650588,508
2.2180059399707317,508
2.2188394634355837,509
2.2196729869004357,508
2.2205065103652872,509
2.2213400338301392,510
2.222173557294991,511
2.2230070807598428,511
2.2238406042246948,511
2.2246741276895468,511
2.2255076511543983,510
2.2263411746192503,510
2.2271746980841023,510
2.228008221548954,510
2.228841745013806,508
2.229675268478658,508
2.2305087919435094,509
2.2313423154083614,508
2.232175838873213,507
2.233009362338065,507
2.233842885802917,508
2.2346764092677684,507
2.2355099327326204,508
2.2363434561974724,508
2.237176979662324,509
2.238010503127176,508
2.238844026592028,508
2.2396775500568795,509
2.2405110735217315,509
2.2413445969865835,509
2.242178120451435,508
2.243011643916287,509
2.2438451673811386,508
2.2446786908459906,508
2.2455122143108426,508
2.246345737775694,508
2.247179261240546,508
2.248012784705398,507
2.2488463081702497,507
2.2496798316351017,507
2.2505133550999536,507
2.251346878564805,507
2.252180402029657,507
2.253013925494509,507
2.2538474489593607,507
2.2546809724242127,507
2.2555144958890643,508
2.2563480193539163,508
2.2571815428187683,508
2.25801506628362,508
2.258848589748472,509
2.259682113213324,509
2.2605156366781753,508
2.2613491601430273,509
2.2621826836078793,509
2.263016207072731,508
2.263849730537583,507
2.264683254002435,509
2.2655167774672864,508
2.2663503009321384,508
2.26718382439699,507
2.268017347861842,506
2.268850871326694,506
2.2696843947915455,506
2.2705179182563975,507
2.2713514417212495,507
2.272184965186101,507
2.273018488650953,507
2.273852012115805,508
2.2746855355806566,507
2.2755190590455086,508
2.2763525825103605,508
2.277186105975212,509
2.278019629440064,509
2.2788531529049156,509
2.2796866763697676,510
2.2805201998346196,510
2.281353723299471,509
2.282187246764323,509
2.283020770229175,510
2.2838542936940267,510
2.2846878171588787,510
2.2855213406237307,510
2.2863548640885822,510
2.2871883875534342,510
2.2880219110182862,510
2.2888554344831378,511
2.2896889579479898,510
2.2905224814128413,510
2.2913560048776933,509
2.2921895283425453,509
2.293023051807397,509
2.293856575272249,509
2.294690098737101,509
2.2955236222019524,510
2.2963571456668044,510
2.2971906691316564,510
2.298024192596508,511
2.29885771606136,511
2.299691239526212,511
2.3005247629910635,511
2.3013582864559154,511
2.302191809920767,511
2.303025333385619,511
2.303858856850471,511
2.3046923803153225,511
2.3055259037801745,511
2.3063594272450265,510
2.307192950709878,510
2.30802647417473,509
2.308859997639582,508
2.3096935211044336,508
2.3105270445692856,508
2.3113605680341376,508
2.312194091498989,507
2.313027614963841,509
2.313861138428693,509
2.3146946618935447,509
2.3155281853583967,510
2.316361708823248,511
2.3171952322881,511
2.318028755752952,511
2.3188622792178037,511
2.3196958026826557,511
2.3205293261475077,511
2.3213628496123593,510
2.3221963730772113,510
2.3230298965420633,509
2.323863420006915,509
2.324696943471767,509
2.325530466936619,508
2.3263639904014703,507
2.3271975138663223,507
2.328031037331174,507
2.328864560796026,507
2.329698084260878,506
2.3305316077257294,506
2.3313651311905814,506
2.3321986546554334,506
2.333032178120285,505
2.333865701585137,507
2.334699225049989,508
2.3355327485148405,508
2.3363662719796925,509
2.3371997954445445,509
2.338033318909396,508
2.338866842374248,508
2.3397003658390996,508
2.3405338893039516,507
2.3413674127688036,507
2.342200936233655,506
2.343034459698507,506
2.343867983163359,505
2.3447015066282106,504
2.3455350300930626,505
2.3463685535579146,504
2.347202077022766,504
2.348035600487618,504
2.34886912395247,506
2.3497026474173217,506
2.3505361708821737,505
2.3513696943470253,507
2.3522032178118772,508
2.3530367412767292,508
2.353870264741581,508
2.354703788206433,509
2.3555373116712848,510
2.3563708351361363,508
2.3572043586009883,507
2.3580378820658403,507
2.358871405530692,506
2.359704928995544,505
2.360538452460396,504
2.3613719759252474,504
2.3622054993900994,503
2.363039022854951,502
2.363872546319803,503
2.364706069784655,504
2.3655395932495065,503
2.3663731167143585,503
2.3672066401792105,505
2.368040163644062,505
2.368873687108914,505
2.369707210573766,506
2.3705407340386175,509
2.3713742575034695,508
2.3722077809683215,507
2.373041304433173,509
2.373874827898025,509
2.3747083513628766,507
2.3755418748277286,506
2.3763753982925806,506
2.377208921757432,505
2.378042445222284,504
2.378875968687136,504
2.3797094921519877,503
2.3805430156168397,503
2.3813765390816917,503
2.382210062546543,504
2.383043586011395,504
2.383877109476247,505
2.3847106329410988,505
2.3855441564059507,507
2.3863776798708023,507
2.3872112033356543,506
2.3880447268005063,507
2.388878250265358,509
2.38971177373021,508
2.390545297195062,508
2.3913788206599134,509
2.3922123441247654,507
2.3930458675896173,506
2.393879391054469,505
2.394712914519321,506
2.395546437984173,504
2.3963799614490244,503
2.3972134849138764,503
2.3980470083787284,503
2.39888053184358,502
2.399714055308432,502
2.4005475787732835,504
2.4013811022381355,504
2.4022146257029875,505
2.403048149167839,504
2.403881672632691,507
2.404715196097543,507
2.4055487195623946,506
2.4063822430272466,506
2.4072157664920986,508
2.40804928995695,507
2.408882813421802,506
2.409716336886654,506
2.4105498603515056,506
2.4113833838163576,505
2.412216907281209,504
2.413050430746061,505
2.413883954210913,504
2.4147174776757647,504
2.4155510011406167,503
2.4163845246054687,504
2.4172180480703203,504
2.4180515715351723,503
2.4188850950000242,505
2.419718618464876,505
2.420552141929728,505
2.42138566539458,505
2.4222191888594313,506
2.4230527123242833,506
2.423886235789135,505
2.424719759253987,506
2.425553282718839,506
2.4263868061836904,506
2.4272203296485424,504
2.4280538531133944,504
2.428887376578246,503
2.429720900043098,503
2.43055442350795,503
2.4313879469728015,504
2.4322214704376535,504
2.4330549939025055,504
2.433888517367357,505
2.434722040832209,507
2.4355555642970605,506
2.4363890877619125,506
2.4372226112267645,507
2.438056134691616,507
2.438889658156468,506
2.43972318162132,506
2.4405567050861716,507
2.4413902285510236,506
2.4422237520158756,506
2.443057275480727,505
2.443890798945579,505
2.444724322410431,505
2.4455578458752827,505
2.4463913693401347,505
2.4472248928049862,505
2.4480584162698382,504
2.44889193973469,504
2.4497254631995418,505
2.4505589866643938,506
2.4513925101292457,505
2.4522260335940973,506
2.4530595570589493,507
2.4538930805238013,507
2.454726603988653,507
2.455560127453505,507
2.456393650918357,507
2.4572271743832084,506
2.4580606978480604,506
2.458894221312912,507
2.459727744777764,507
2.460561268242616,506
2.4613947917074674,505
2.4622283151723194,505
2.4630618386371714,505
2.463895362102023,504
2.464728885566875,505
2.465562409031727,505
2.4663959324965785,505
2.4672294559614305,505
2.4680629794262825,507
2.468896502891134,507
2.469730026355986,507
2.4705635498208376,507
2.4713970732856896,507
2.4722305967505416,508
2.473064120215393,507
2.473897643680245,507
2.474731167145097,508
2.4755646906099487,507
2.4763982140748007,506
2.4772317375396526,507
2.478065261004504,508
2.478898784469356,506
2.479732307934208,506
2.4805658313990597,507
2.4813993548639117,506
2.4822328783287637,506
2.4830664017936153,507
2.4838999252584673,508
2.484733448723319,508
2.485566972188171,508
2.486400495653023,509
2.4872340191178743,510
2.4880675425827263,509
2.4889010660475783,509
2.48973458951243,509
2.490568112977282,510
2.491401636442134,509
2.4922351599069854,508
2.4930686833718374,509
2.4939022068366894,508
2.494735730301541,508
2.495569253766393,507
2.4964027772312445,509
2.4972363006960965,509
2.4980698241609485,508
2.4989033476258,508
2.499736871090652,509
2.500570394555504,509
2.5014039180203556,509
2.5022374414852075,509
2.5030709649500595,511
2.503904488414911,510
2.504738011879763,510
2.505571535344615,511
2.5064050588094666,512
2.5072385822743186,511
2.50807210573917,510
2.508905629204022,511
2.509739152668874,510
2.5105726761337257,510
2.5114061995985777,509
2.5122397230634297,510
2.5130732465282812,510
2.5139067699931332,509
2.514740293457985,509
2.5155738169228368,510
2.5164073403876888,510
2.5172408638525408,509
2.5180743873173923,510
2.5189079107822443,511
2.519741434247096,511
2.520574957711948,511
2.5214084811768,511
2.5222420046416514,513
2.5230755281065034,512
2.5239090515713554,512
2.524742575036207,513
2.525576098501059,512
2.526409621965911,511
2.5272431454307624,510
2.5280766688956144,509
2.5289101923604664,509
2.529743715825318,509
2.53057723929017,509
2.5314107627550215,510
2.5322442862198735,511
2.5330778096847255,513
2.533911333149577,513
2.534744856614429,513
2.535578380079281,514
2.5364119035441326,513
2.5372454270089846,513
2.5380789504738366,514
2.538912473938688,515
2.53974599740354,515
2.540579520868392,514
2.5414130443332437,514
2.5422465677980957,514
2.543080091262947,513
2.543913614727799,512
2.544747138192651,511
2.5455806616575027,510
2.5464141851223547,510
2.5472477085872067,510
2.5480812320520583,510
2.5489147555169103,510
2.5497482789817623,510
2.550581802446614,510
2.551415325911466,511
2.552248849376318,512
2.5530823728411693,512
2.5539158963060213,512
2.554749419770873,513
2.555582943235725,514
2.556416466700577,514
2.5572499901654284,515
2.5580835136302804,517
2.5589170370951324,519
2.559750560559984,519
2.560584084024836,517
2.561417607489688,516
2.5622511309545395,515
2.5630846544193915,514
2.5639181778842435,513
2.564751701349095,512
2.565585224813947,512
2.566418748278799,512
2.5672522717436506,511
2.5680857952085026,511
2.568919318673354,512
2.569752842138206,512
2.570586365603058,513
2.5714198890679096,513
2.5722534125327616,512
2.5730869359976136,513
2.573920459462465,512
2.574753982927317,513
2.575587506392169,513
2.5764210298570207,514
2.5772545533218727,514
2.5780880767867247,514
2.5789216002515762,513
2.5797551237164282,512
2.58058864718128,511
2.5814221706461318,511
2.5822556941109838,510
2.5830892175758353,510
2.5839227410406873,510
2.5847562645055393,511
2.585589787970391,511
2.586423311435243,512
2.587256834900095,512
2.5880903583649464,513
2.5889238818297984,513
2.5897574052946504,513
2.590590928759502,512
2.591424452224354,513
2.5922579756892055,513
2.5930914991540575,514
2.5939250226189094,515
2.594758546083761,517
2.595592069548613,517
2.596425593013465,516
2.5972591164783165,516
2.5980926399431685,515
2.5989261634080205,514
2.599759686872872,513
2.600593210337724,513
2.601426733802576,513
2.6022602572674276,513
2.6030937807322796,513
2.603927304197131,514
2.604760827661983,514
2.605594351126835,515
2.6064278745916867,514
2.6072613980565387,514
2.6080949215213907,514
2.608928444986242,513
2.609761968451094,514
2.610595491915946,514
2.6114290153807977,514
2.6122625388456497,516
2.6130960623105017,517
2.6139295857753533,517
2.6147631092402053,517
2.615596632705057,518
2.616430156169909,517
2.617263679634761,517
2.6180972030996124,516
2.6189307265644644,517
2.6197642500293163,516
2.620597773494168,516
2.62143129695902,516
2.622264820423872,517
2.6230983438887234,517
2.6239318673535754,517
2.6247653908184274,516
2.625598914283279,517
2.626432437748131,516
2.6272659612129825,516
2.6280994846778345,517
2.6289330081426865,517
2.629766531607538,517
2.63060005507239,518
2.631433578537242,519
2.6322671020020936,519
2.6331006254669456,519
2.6339341489317976,519
2.634767672396649,519
2.635601195861501,518
2.636434719326353,518
2.6372682427912046,517
2.6381017662560566,517
2.638935289720908,517
2.63976881318576,517
2.640602336650612,516
2.6414358601154637,517
2.6422693835803157,516
2.6431029070451677,516
2.6439364305100193,515
2.6447699539748712,515
2.6456034774397232,515
2.646437000904575,516
2.647270524369427,516
2.6481040478342788,516
2.6489375712991303,518
2.6497710947639823,519
2.6506046182288343,519
2.651438141693686,519
2.652271665158538,519
2.6531051886233894,519
2.6539387120882414,518
2.6547722355530934,518
2.655605759017945,517
2.656439282482797,517
2.657272805947649,516
2.6581063294125005,516
2.6589398528773525,516
2.6597733763422045,516
2.660606899807056,515
2.661440423271908,515
2.66227394673676,515
2.6631074702016115,514
2.6639409936664635,515
2.664774517131315,516
2.665608040596167,517
2.666441564061019,518
2.6672750875258706,519
2.6681086109907226,520
2.6689421344555746,521
2.669775657920426,521
2.670609181385278,520
2.67144270485013,519
2.6722762283149817,519
2.6731097517798337,518
2.6739432752446857,518
2.674776798709537,517
2.675610322174389,516
2.6764438456392408,515
2.6772773691040928,515
2.6781108925689447,515
2.6789444160337963,515
2.6797779394986483,514
2.6806114629635003,514
2.681444986428352,515
2.682278509893204,515
2.683112033358056,515
2.6839455568229074,516
2.6847790802877594,518
2.6856126037526113,520
2.686446127217463,521
2.687279650682315,521
2.6881131741471664,521
2.6889466976120184,521
2.6897802210768704,520
2.690613744541722,519
2.691447268006574,518
2.692280791471426,517
2.6931143149362775,517
2.6939478384011295,516
2.6947813618659815,516
2.695614885330833,516
2.696448408795685,516
2.697281932260537,515
2.6981154557253886,515
2.6989489791902406,515
2.699782502655092,516
2.700616026119944,516
2.701449549584796,516
2.7022830730496477,518
2.7031165965144996,520
2.7039501199793516,522
2.704783643444203,522
2.705617166909055,522
2.706450690373907,521
2.7072842138387587,520
2.7081177373036107,518
2.7089512607684627,518
2.7097847842333143,517
2.7106183076981663,517
2.711451831163018,516
2.71228535462787,516
2.713118878092722,516
2.7139524015575733,516
2.7147859250224253,516
2.7156194484872773,516
2.716452971952129,516
2.717286495416981,517
2.718120018881833,517
2.7189535423466844,517
2.7197870658115364,518
2.7206205892763884,519
2.72145411274124,520
2.722287636206092,521
2.7231211596709435,522
2.7239546831357955,522
2.7247882066006475,521
2.725621730065499,519
2.726455253530351,518
2.727288776995203,517
2.7281223004600546,516
2.7289558239249065,516
2.7297893473897585,515
2.73062287085461,516
2.731456394319462,516
2.732289917784314,516
2.7331234412491656,517
2.7339569647140176,518
2.7347904881788696,518
2.735624011643721,518
2.736457535108573,518
2.7372910585734247,519
2.7381245820382767,519
2.7389581055031287,520
2.7397916289679802,521
2.7406251524328322,522
2.741458675897684,522
2.7422921993625358,522
2.7431257228273878,520
2.7439592462922398,519
2.7447927697570913,518
2.7456262932219433,517
2.7464598166867953,516
2.747293340151647,515
2.748126863616499,515
2.7489603870813504,515
2.7497939105462024,516
2.7506274340110544,516
2.751460957475906,517
2.752294480940758,517
2.75312800440561,517
2.7539615278704614,518
2.7547950513353134,519
2.7556285748001654,518
2.756462098265017,518
2.757295621729869,519
2.758129145194721,520
2.7589626686595725,520
2.7597961921244245,520
2.760629715589276,519
2.761463239054128,519
2.76229676251898,518
2.7631302859838316,518
2.7639638094486836,517
2.7647973329135356,516
2.765630856378387,516
2.766464379843239,516
2.767297903308091,517
2.7681314267729427,517
2.7689649502377947,517
2.7697984737026466,518
2.770631997167498,518
2.77146552063235,518
2.7722990440972017,517
2.7731325675620537,518
2.7739660910269057,519
2.7747996144917573,518
2.7756331379566093,519
2.7764666614214613,520
2.777300184886313,520
2.778133708351165,520
2.778967231816017,519
2.7798007552808683,519
2.7806342787457203,518
2.7814678022105723,517
2.782301325675424,517
2.783134849140276,517
2.7839683726051274,517
2.7848018960699794,517
2.7856354195348314,517
2.786468942999683,518
2.787302466464535,518
2.788135989929387,518
2.7889695133942385,518
2.7898030368590905,518
2.7906365603239425,518
2.791470083788794,518
2.792303607253646,518
2.793137130718498,519
2.7939706541833496,518
2.7948041776482015,519
2.795637701113053,520
2.796471224577905,520
2.797304748042757,519
2.7981382715076086,518
2.7989717949724606,518
2.7998053184373126,517
2.800638841902164,517
2.801472365367016,517
2.802305888831868,517
2.8031394122967197,517
2.8039729357615717,517
2.8048064592264237,517
2.8056399826912752,517
2.8064735061561272,517
2.8073070296209788,517
2.8081405530858308,516
2.8089740765506828,516
2.8098076000155343,516
2.8106411234803863,516
2.8114746469452383,516
2.81230817041009,518
2.813141693874942,518
2.813975217339794,519
2.8148087408046454,519
2.8156422642694974,518
2.8164757877343494,518
2.817309311199201,518
2.818142834664053,518
2.818976358128905,517
2.8198098815937565,517
2.8206434050586084,517
2.82147692852346,517
2.822310451988312,517
2.823143975453164,517
2.8239774989180155,516
2.8248110223828675,516
2.8256445458477195,515
2.826478069312571,515
2.827311592777423,514
2.828145116242275,515
2.8289786397071266,514
2.8298121631719786,515
2.8306456866368306,515
2.831479210101682,516
2.832312733566534,517
2.8331462570313857,518
2.8339797804962377,518
2.8348133039610897,517
2.835646827425941,517
2.836480350890793,517
2.837313874355645,517
2.8381473978204967,517
2.8389809212853487,517
2.8398144447502007,516
2.8406479682150523,515
2.8414814916799043,515
2.8423150151447563,515
2.843148538609608,515
2.84398206207446,515
2.8448155855393114,514
2.8456491090041633,514
2.8464826324690153,514
2.847316155933867,515
2.848149679398719,516
2.848983202863571,518
2.8498167263284224,519
2.8506502497932744,520
2.8514837732581264,520
2.852317296722978,520
2.85315082018783,520
2.853984343652682,519
2.8548178671175335,519
2.8556513905823855,518
2.856484914047237,517
2.857318437512089,516
2.858151960976941,516
2.8589854844417926,516
2.8598190079066446,515
2.8606525313714966,515
2.861486054836348,515
2.8623195783012,515
2.863153101766052,515
2.8639866252309036,515
2.8648201486957556,516
2.8656536721606076,517
2.866487195625459,517
2.867320719090311,518
2.8681542425551627,520
2.8689877660200147,520
2.8698212894848667,520
2.8706548129497182,520
2.8714883364145702,519
2.8723218598794222,518
2.873155383344274,518
2.8739889068091258,516
2.8748224302739778,516
2.8756559537388293,515
2.8764894772036813,515
2.8773230006685333,514
2.878156524133385,513
2.878990047598237,513
2.8798235710630884,513
2.8806570945279404,514
2.8814906179927924,513
2.882324141457644,514
2.883157664922496,515
2.883991188387348,517
2.8848247118521995,518
2.8856582353170515,519
2.8864917587819034,521
2.887325282246755,521
2.888158805711607,520
2.888992329176459,519
2.8898258526413105,518
2.8906593761061625,517
2.891492899571014,516
2.892326423035866,515
2.893159946500718,513
2.8939934699655696,513
2.8948269934304216,513
2.8956605168952736,513
2.896494040360125,513
2.897327563824977,513
2.898161087289829,514
2.8989946107546807,514
2.8998281342195327,514
2.9006616576843847,515
2.901495181149236,516
2.902328704614088,517
2.90316222807894,518
2.9039957515437917,519
2.9048292750086437,520
2.9056627984734953,519
2.9064963219383473,518
2.9073298454031993,517
2.908163368868051,517
2.908996892332903,515
2.909830415797755,514
2.9106639392626064,513
2.9114974627274584,512
2.9123309861923103,512
2.913164509657162,512
2.913998033122014,512
2.914831556586866,512
2.9156650800517174,512
2.9164986035165694,512
2.917332126981421,513
2.918165650446273,514
2.918999173911125,514
2.9198326973759765,515
2.9206662208408285,517
2.9214997443056805,518
2.922333267770532,519
2.923166791235384,518
2.924000314700236,518
2.9248338381650876,516
2.9256673616299396,515
2.9265008850947916,514
2.927334408559643,513
2.928167932024495,511
2.9290014554893467,510
2.9298349789541986,510
2.9306685024190506,509
2.931502025883902,510
2.932335549348754,510
2.933169072813606,511
2.9340025962784577,511
2.9348361197433097,512
2.9356696432081617,512
2.9365031666730133,513
2.9373366901378652,514
2.9381702136027172,514
2.939003737067569,516
2.939837260532421,515
2.9406707839972723,516
2.9415043074621243,516
2.9423378309269763,516
2.943171354391828,515
2.94400487785668,514
2.944838401321532,513
2.9456719247863834,512
2.9465054482512354,511
2.9473389717160874,511
2.948172495180939,511
2.949006018645791,512
2.949839542110643,512
2.9506730655754945,513
2.9515065890403465,513
2.952340112505198,513
2.95317363597005,513
2.954007159434902,514
2.9548406828997535,515
2.9556742063646055,515
2.9565077298294575,515
2.957341253294309,515
2.958174776759161,516
2.959008300224013,516
2.9598418236888646,516
2.9606753471537166,516
2.9615088706185686,515
2.96234239408342,513
2.963175917548272,511
2.9640094410131237,511
2.9648429644779757,510
2.9656764879428277,509
2.9665100114076792,509
2.967343534872531,510
2.968177058337383,510
2.9690105818022348,511
2.9698441052670868,511
2.9706776287319387,511
2.9715111521967903,510
2.9723446756616423,510
2.9731781991264943,510
2.974011722591346,511
2.974845246056198,511
2.9756787695210494,511
2.9765122929859014,511
2.9773458164507534,512
2.978179339915605,511
2.979012863380457,511
2.979846386845309,510
2.9806799103101604,509
2.9815134337750124,509
2.9823469572398644,509
2.983180480704716,509
2.984014004169568,509
2.98484752763442,509
2.9856810510992715,510
2.9865145745641235,510
2.987348098028975,510
2.988181621493827,510
2.989015144958679,510
2.9898486684235306,510
2.9906821918883826,510
2.9915157153532346,509
2.992349238818086,509
2.993182762282938,509
2.99401628574779,510
2.9948498092126417,511
2.9956833326774936,511
2.9965168561423456,511
2.997350379607197,511
2.998183903072049,510
2.999017426536901,509
2.9998509500017527,509
3.0006844734666047,508
3.0015179969314563,508
3.0023515203963083,508
3.0031850438611603,509
3.004018567326012,509
3.004852090790864,509
3.005685614255716,508
3.0065191377205673,509
3.0073526611854193,509
3.0081861846502713,509
3.009019708115123,508
3.009853231579975,508
3.010686755044827,509
3.0115202785096784,508
3.0123538019745304,509
3.013187325439382,510
3.014020848904234,511
3.014854372369086,510
3.0156878958339375,510
3.0165214192987895,510
3.0173549427636415,510
3.018188466228493,510
3.019021989693345,509
3.019855513158197,509
3.0206890366230486,510
3.0215225600879005,509
3.0223560835527525,510
3.023189607017604,510
3.024023130482456,509
3.0248566539473076,508
3.0256901774121596,508
3.0265237008770116,507
3.027357224341863,507
3.028190747806715,507
3.029024271271567,508
3.0298577947364187,508
3.0306913182012707,509
3.0315248416661227,511
3.0323583651309742,512
3.0331918885958262,512
3.034025412060678,512
3.0348589355255298,512
3.0356924589903818,511
3.0365259824552333,511
3.0373595059200853,511
3.0381930293849373,511
3.039026552849789,510
3.039860076314641,509
3.040693599779493,509
3.0415271232443444,508
3.0423606467091964,508
3.0431941701740484,508
3.0440276936389,507
3.044861217103752,507
3.045694740568604,507
3.0465282640334554,508
3.0473617874983074,508
3.048195310963159,510
3.049028834428011,511
3.049862357892863,513
3.0506958813577145,513
3.0515294048225665,514
3.0523629282874185,514
3.05319645175227,514
3.054029975217122,514
3.054863498681974,513
3.0556970221468256,513
3.0565305456116776,512
3.0573640690765296,512
3.058197592541381,510
3.059031116006233,510
3.0598646394710847,510
3.0606981629359367,509
3.0615316864007887,509
3.06236520986564,509
3.063198733330492,509
3.064032256795344,509
3.0648657802601957,510
3.0656993037250477,511
3.0665328271898997,513
3.0673663506547513,515
3.0681998741196033,516
3.0690333975844553,516
3.069866921049307,516
3.070700444514159,516
3.0715339679790103,515
3.0723674914438623,515
3.0732010149087143,514
3.074034538373566,514
3.074868061838418,513
3.07570158530327,511
3.0765351087681214,511
3.0773686322329734,511
3.0782021556978254,511
3.079035679162677,511
3.079869202627529,511
3.080702726092381,511
3.0815362495572325,512
3.0823697730220845,512
3.0832032964869365,514
3.084036819951788,515
3.08487034341664,517
3.0857038668814916,518
3.0865373903463436,519
3.0873709138111955,520
3.088204437276047,519
3.089037960740899,518
3.089871484205751,517
3.0907050076706026,517
3.0915385311354546,516
3.0923720546003066,515
3.093205578065158,514
3.09403910153001,513
3.094872624994862,513
3.0957061484597137,513
3.0965396719245657,513
3.0973731953894172,513
3.0982067188542692,513
3.0990402423191212,513
3.099873765783973,514
3.1007072892488248,515
3.1015408127136768,516
3.1023743361785283,517
3.1032078596433803,519
3.1040413831082323,520
3.104874906573084,520
3.105708430037936,520
3.106541953502788,520
3.1073754769676394,519
3.1082090004324914,518
3.109042523897343,516
3.109876047362195,515
3.110709570827047,515
3.1115430942918985,514
3.1123766177567505,513
3.1132101412216024,514
3.114043664686454,514
3.114877188151306,514
3.115710711616158,513
3.1165442350810095,514
3.1173777585458615,515
3.1182112820107135,515
3.119044805475565,516
3.119878328940417,517
3.1207118524052686,518
3.1215453758701206,518
3.1223788993349726,519
3.123212422799824,519
3.124045946264676,519
3.124879469729528,518
3.1257129931943797,516
3.1265465166592317,515
3.1273800401240837,514
3.128213563588935,512
3.129047087053787,511
3.129880610518639,511
3.1307141339834907,511
3.1315476574483427,511
3.1323811809131943,511
3.1332147043780463,512
3.1340482278428983,513
3.13488175130775,514
3.135715274772602,514
3.136548798237454,515
3.1373823217023054,516
3.1382158451671573,516
3.1390493686320093,517
3.139882892096861,517
3.140716415561713,518
3.141549939026565,518
3.1423834624914164,518
3.1432169859562684,517
3.14405050942112,516
3.144884032885972,515
3.145717556350824,514
3.1465510798156755,513
3.1473846032805275,513
3.1482181267453795,513
3.149051650210231,512
3.149885173675083,513
3.150718697139935,513
3.1515522206047866,513
3.1523857440696386,514
3.1532192675344906,515
3.154052790999342,515
3.154886314464194,515
3.1557198379290456,515
3.1565533613938976,515
3.1573868848587496,516
3.158220408323601,515
3.159053931788453,515
3.159887455253305,516
3.1607209787181567,516
3.1615545021830087,515
3.1623880256478607,516
3.1632215491127122,515
3.1640550725775642,514
3.1648885960424162,515
3.165722119507268,514
3.1665556429721198,515
3.1673891664369718,514
3.1682226899018233,515
3.1690562133666753,515
3.169889736831527,515
3.170723260296379,515
3.171556783761231,515
3.1723903072260824,515
3.1732238306909344,514
3.1740573541557864,515
3.174890877620638,515
3.17572440108549,515
3.176557924550342,516
3.1773914480151935,515
3.1782249714800455,516
3.1790584949448975,516
3.179892018409749,516
3.180725541874601,516
3.1815590653394525,516
3.1823925888043045,515
3.1832261122691565,515
3.184059635734008,515
3.18489315919886,515
3.185726682663712,515
3.1865602061285636,515
3.1873937295934156,515
3.1882272530582676,515
3.189060776523119,515
3.189894299987971,515
3.190727823452823,514
3.1915613469176747,514
3.1923948703825267,514
3.193228393847378,513
3.19406191731223,513
3.194895440777082,513
3.1957289642419338,514
3.1965624877067857,514
3.1973960111716377,515
3.1982295346364893,515
3.1990630581013413,516
3.1998965815661933,516
3.200730105031045,517
3.201563628495897,517
3.202397151960749,517
3.2032306754256004,517
3.2040641988904524,516
3.204897722355304,515
3.205731245820156,515
3.206564769285008,514
3.2073982927498594,514
3.2082318162147114,513
3.2090653396795634,512
3.209898863144415,512
3.210732386609267,511
3.211565910074119,512
3.2123994335389705,512
3.2132329570038225,512
3.2140664804686745,512
3.214900003933526,513
3.215733527398378,514
3.2165670508632296,515
3.2174005743280816,516
3.2182340977929336,516
3.219067621257785,517
3.219901144722637,517
3.220734668187489,517
3.2215681916523407,516
3.2224017151171926,516
3.2232352385820446,515
3.224068762046896,515
3.224902285511748,513
3.2257358089766,512
3.2265693324414517,512
3.2274028559063037,511
3.2282363793711553,510
3.2290699028360073,510
3.2299034263008592,510
3.230736949765711,511
3.231570473230563,512
3.232403996695415,512
3.2332375201602663,513
3.2340710436251183,514
3.2349045670899703,515
3.235738090554822,516
3.236571614019674,517
3.237405137484526,517
3.2382386609493774,518
3.2390721844142294,518
3.239905707879081,517
3.240739231343933,517
3.241572754808785,516
3.2424062782736365,515
3.2432398017384885,514
3.2440733252033405,513
3.244906848668192,512
3.245740372133044,511
3.246573895597896,511
3.2474074190627475,510
3.2482409425275995,510
3.2490744659924515,511
3.249907989457303,512
3.250741512922155,513
3.251575036387007,514
3.2524085598518586,514
3.2532420833167106,515
3.254075606781562,516
3.254909130246414,516
3.255742653711266,516
3.2565761771761177,516
3.2574097006409697,516
3.2582432241058217,516
3.2590767475706732,516
3.259910271035525,515
3.260743794500377,515
3.2615773179652288,514
3.2624108414300808,514
3.2632443648949327,513
3.2640778883597843,514
3.2649114118246363,513
3.265744935289488,514
3.26657845875434,515
3.267411982219192,515
3.2682455056840434,515
3.2690790291488954,516
3.2699125526137474,516
3.270746076078599,517
3.271579599543451,517
3.272413123008303,517
3.2732466464731544,518
3.2740801699380064,518
3.2749136934028584,518
3.27574721686771,519
3.276580740332562,519
3.2774142637974135,518
3.2782477872622655,518
3.2790813107271175,518
3.279914834191969,518
3.280748357656821,518
3.281581881121673,519
3.2824154045865246,518
3.2832489280513766,519
3.2840824515162286,519
3.28491597498108,520
3.285749498445932,520
3.286583021910784,521
3.2874165453756357,522
3.2882500688404876,523
3.289083592305339,522
3.289917115770191,521
3.290750639235043,521
3.2915841626998947,521
3.2924176861647467,521
3.2932512096295987,522
3.2940847330944503,521
3.2949182565593023,522
3.2957517800241543,522
3.296585303489006,523
3.297418826953858,523
3.29825235041871,522
3.2990858738835613,522
3.2999193973484133,522
3.300752920813265,521
3.301586444278117,521
3.302419967742969,522
3.3032534912078204,522
3.3040870146726724,522
3.3049205381375244,522
3.305754061602376,522
3.306587585067228,522
3.30742110853208,522
3.3082546319969315,522
3.3090881554617835,522
3.3099216789266355,523
3.310755202391487,523
3.311588725856339,524
3.3124222493211906,525
3.3132557727860426,525
3.3140892962508945,526
3.314922819715746,527
3.315756343180598,528
3.31658986664545,528
3.3174233901103016,528
3.3182569135751536,530
3.3190904370400056,530
3.319923960504857,531
3.320757483969709,533
3.321591007434561,535
3.3224245308994127,536
3.3232580543642647,535
3.3240915778291162,534
3.3249251012939682,533
3.3257586247588202,532
3.3265921482236718,531
3.3274256716885238,531
3.3282591951533758,531
3.3290927186182273,530
3.3299262420830793,530
3.3307597655479313,531
3.331593289012783,532
3.332426812477635,534
3.333260335942487,537
3.3340938594073384,539
3.3349273828721904,544
3.3357609063370424,548
3.336594429801894,552
3.337427953266746,556
3.3382614767315975,559
3.3390950001964494,562
3.3399285236613014,565
3.340762047126153,568
3.341595570591005,571
3.342429094055857,574
3.3432626175207085,574
3.3440961409855605,572
3.3449296644504125,571
3.345763187915264,572
3.346596711380116,575
3.347430234844968,576
3.3482637583098196,577
3.3490972817746716,578
3.349930805239523,581
3.350764328704375,584
3.351597852169227,589
3.3524313756340787,593
3.3532648990989307,599
3.3540984225637827,604
3.354931946028634,609
3.355765469493486,615
3.356598992958338,621
3.3574325164231897,627
3.3582660398880417,632
3.3590995633528937,638
3.3599330868177453,643
3.3607666102825973,648
3.361600133747449,653
3.362433657212301,659
3.363267180677153,666
3.3641007041420043,670
3.3649342276068563,671
3.3657677510717083,676
3.36660127453656,682
3.367434798001412,685
3.368268321466264,688
3.3691018449311154,693
3.3699353683959674,700
3.3707688918608194,706
3.371602415325671,709
3.372435938790523,712
3.3732694622553745,717
3.3741029857202265,722
3.3749365091850785,726
3.37577003264993,730
3.376603556114782,736
3.377437079579634,742
3.3782706030444856,746
3.3791041265093376,751
3.3799376499741896,759
3.380771173439041,767
3.381604696903893,773
3.382438220368745,778
3.3832717438335966,783
3.3841052672984486,790
3.3849387907633,794
3.385772314228152,800
3.386605837693004,805
3.3874393611578557,810
3.3882728846227077,815
3.3891064080875597,818
3.3899399315524112,821
3.3907734550172632,824
3.3916069784821152,825
3.392440501946967,828
3.3932740254118188,831
3.3941075488766708,836
3.3949410723415223,842
3.3957745958063743,848
3.396608119271226,854
3.397441642736078,862
3.39827516620093,869
3.3991086896657814,876
3.3999422131306334,883
3.4007757365954854,888
3.401609260060337,895
3.402442783525189,901
3.403276306990041,907
3.4041098304548925,912
3.4049433539197445,917
3.4057768773845964,921
3.406610400849448,923
3.4074439243143,925
3.4082774477791515,927
3.4091109712440035,928
3.4099444947088555,931
3.410778018173707,933
3.411611541638559,936
3.412445065103411,939
3.4132785885682626,941
3.4141121120331146,942
3.4149456354979666,944
3.415779158962818,948
3.41661268242767,950
3.417446205892522,953
3.4182797293573737,955
3.4191132528222257,959
3.4199467762870777,961
3.420780299751929,963
3.421613823216781,965
3.4224473466816328,969
3.4232808701464847,972
3.4241143936113367,973
3.4249479170761883,974
3.4257814405410403,976
3.4266149640058923,978
3.427448487470744,978
3.428282010935596,980
3.429115534400448,981
3.4299490578652994,982
3.4307825813301513,983
3.4316161047950033,983
3.432449628259855,983
3.433283151724707,984
3.4341166751895584,985
3.4349501986544104,986
3.4357837221192624,986
3.436617245584114,987
3.437450769048966,987
3.438284292513818,988
3.4391178159786695,988
3.4399513394435215,990
3.4407848629083735,991
3.441618386373225,989
3.442451909838077,986
3.443285433302929,986
3.4441189567677806,983
3.4449524802326326,980
3.445786003697484,978
3.446619527162336,977
3.447453050627188,978
3.4482865740920396,979
3.4491200975568916,978
3.4499536210217436,978
3.450787144486595,979
3.451620667951447,979
3.452454191416299,979
3.4532877148811507,978
3.4541212383460027,979
3.4549547618108547,978
3.4557882852757063,978
3.4566218087405582,978
3.45745533220541,978
3.458288855670262,977
3.459122379135114,975
3.4599559025999653,975
3.4607894260648173,974
3.4616229495296693,972
3.462456472994521,972
3.463289996459373,972
3.464123519924225,973
3.4649570433890764,973
3.4657905668539284,973
3.4666240903187804,974
3.467457613783632,974
3.468291137248484,973
3.4691246607133355,973
3.4699581841781875,971
3.4707917076430395,970
3.471625231107891,969
3.472458754572743,968
3.473292278037595,967
3.4741258015024465,965
3.4749593249672985,964
3.4757928484321505,963
3.476626371897002,961
3.477459895361854,958
3.478293418826706,956
3.4791269422915576,955
3.4799604657564096,955
3.480793989221261,952
3.481627512686113,952
3.482461036150965,951
3.4832945596158167,950
3.4841280830806687,950
3.4849616065455207,949
3.4857951300103722,948
3.486628653475224,949
3.487462176940076,948
3.4882957004049278,945
3.4891292238697798,942
3.4899627473346317,940
3.4907962707994833,937
3.4916297942643353,935
3.492463317729187,934
3.493296841194039,931
3.494130364658891,929
3.4949638881237424,928
3.4957974115885944,925
3.4966309350534464,923
3.497464458518298,921
3.49829798198315,920
3.499131505448002,918
3.4999650289128534,915
3.5007985523777054,914
3.5016320758425574,912
3.502465599307409,911
3.503299122772261,910
3.504132646237113,909
3.5049661697019645,907
3.5057996931668165,906
3.506633216631668,906
3.50746674009652,904
3.508300263561372,903
3.5091337870262236,901
3.5099673104910756,900
3.5108008339559276,899
3.511634357420779,899
3.512467880885631,898
3.513301404350483,896
3.5141349278153347,894
3.5149684512801866,893
3.5158019747450386,891
3.51663549820989,890
3.517469021674742,888
3.5183025451395937,887
3.5191360686044457,885
3.5199695920692977,884
3.5208031155341493,883
3.5216366389990013,882
3.5224701624638532,880
3.523303685928705,878
3.524137209393557,877
3.524970732858409,875
3.5258042563232603,874
3.5266377797881123,873
3.5274713032529643,874
3.528304826717816,873
3.529138350182668,870
3.5299718736475194,867
3.5308053971123714,866
3.5316389205772234,864
3.532472444042075,864
3.533305967506927,864
3.534139490971779,863
3.5349730144366305,862
3.5358065379014825,860
3.5366400613663345,860
3.537473584831186,859
3.538307108296038,859
3.53914063176089,857
3.5399741552257415,856
3.5408076786905935,854
3.541641202155445,853
3.542474725620297,852
3.543308249085149,849
3.5441417725500006,847
3.5449752960148526,844
3.5458088194797046,842
3.546642342944556,840
3.547475866409408,838
3.54830938987426,837
3.5491429133391117,836
3.5499764368039637,835
3.5508099602688157,835
3.5516434837336672,834
3.552477007198519,834
3.5533105306633708,833
3.5541440541282228,832
3.5549775775930748,831
3.5558111010579263,830
3.5566446245227783,829
3.5574781479876303,828
3.558311671452482,826
3.559145194917334,825
3.559978718382186,824
3.5608122418470374,824
3.5616457653118894,822
3.5624792887767414,822
3.563312812241593,821
3.564146335706445,820
3.5649798591712965,820
3.5658133826361484,820
3.5666469061010004,820
3.567480429565852,819
3.568313953030704,817
3.569147476495556,814
3.5699809999604075,812
3.5708145234252595,810
3.5716480468901115,809
3.572481570354963,807
3.573315093819815,806
3.574148617284667,804
3.5749821407495186,802
3.5758156642143706,802
3.576649187679222,800
3.577482711144074,799
3.578316234608926,798
3.5791497580737777,797
3.5799832815386297,797
3.5808168050034817,796
3.581650328468333,796
3.582483851933185,795
3.583317375398037,796
3.5841508988628887,797
3.5849844223277407,797
3.5858179457925927,797
3.5866514692574443,797
3.5874849927222963,797
3.5883185161871483,796
3.589152039652,795
3.589985563116852,795
3.5908190865817033,793
3.5916526100465553,791
3.5924861335114073,788
3.593319656976259,787
3.594153180441111,786
3.594986703905963,786
3.5958202273708144,785
3.5966537508356664,784
3.5974872743005184,783
3.59832079776537,783
3.599154321230222,781
3.599987844695074,781
3.6008213681599255,780
3.6016548916247775,781
3.602488415089629,779
3.603321938554481,778
3.604155462019333,779
3.6049889854841846,779
3.6058225089490366,778
3.6066560324138885,776
3.60748955587874,776
3.608323079343592,775
3.609156602808444,773
3.6099901262732956,772
3.6108236497381476,771
3.6116571732029996,772
3.612490696667851,770
3.613324220132703,769
3.6141577435975547,769
3.6149912670624067,767
3.6158247905272587,766
3.6166583139921102,766
3.6174918374569622,765
3.6183253609218142,764
3.6191588843866658,762
3.6199924078515178,760
3.6208259313163698,759
3.6216594547812213,760
3.6224929782460733,758
3.6233265017109253,757
3.624160025175777,755
3.624993548640629,755
3.6258270721054804,753
3.6266605955703324,752
3.6274941190351844,750
3.628327642500036,750
3.629161165964888,749
3.62999468942974,748
3.6308282128945915,748
3.6316617363594434,749
3.6324952598242954,748
3.633328783289147,746
3.634162306753999,745
3.634995830218851,744
3.6358293536837025,743
3.6366628771485545,742
3.637496400613406,740
3.638329924078258,740
3.63916344754311,738
3.6399969710079616,736
3.6408304944728136,735
3.6416640179376656,734
3.642497541402517,732
3.643331064867369,731
3.644164588332221,730
3.6449981117970727,730
3.6458316352619247,730
3.6466651587267767,729
3.647498682191628,727
3.64833220565648,728
3.6491657291213317,728
3.6499992525861837,727
3.6508327760510357,726
3.6516662995158873,725
3.6524998229807393,725
3.6533333464455913,723
3.654166869910443,721
3.655000393375295,720
3.655833916840147,719
3.6566674403049984,717
3.6575009637698503,714
3.6583344872347023,711
3.659168010699554,710
3.660001534164406,708
3.6608350576292574,705
3.6616685810941094,703
3.6625021045589614,702
3.663335628023813,699
3.664169151488665,697
3.665002674953517,695
3.6658361984183685,694
3.6666697218832205,692
3.6675032453480725,690
3.668336768812924,687
3.669170292277776,684
3.670003815742628,682
3.6708373392074796,677
3.6716708626723316,673
3.6725043861371836,670
3.673337909602035,667
3.674171433066887,662
3.6750049565317386,657
3.6758384799965906,654
3.6766720034614426,651
3.677505526926294,647
3.678339050391146,643
3.679172573855998,639
3.6800060973208497,637
3.6808396207857017,632
3.6816731442505537,628
3.6825066677154052,623
3.6833401911802572,620
3.6841737146451092,617
3.685007238109961,613
3.6858407615748128,610
3.6866742850396643,606
3.6875078085045163,602
3.6883413319693683,597
3.68917485543422,593
3.690008378899072,589
3.690841902363924,586
3.6916754258287754,580
3.6925089492936274,574
3.6933424727584794,572
3.694175996223331,568
3.695009519688183,562
3.695843043153035,556
3.6966765666178865,551
3.6975100900827385,547
3.69834361354759,542
3.699177137012442,537
3.700010660477294,533
3.7008441839421455,531
3.7016777074069975,525
3.7025112308718495,519
3.703344754336701,515
3.704178277801553,513
3.705011801266405,508
3.7058453247312566,502
3.7066788481961086,498
3.7075123716609606,496
3.708345895125812,491
3.709179418590664,489
3.7100129420555157,485
3.7108464655203677,482
3.7116799889852197,479
3.712513512450071,476
3.713347035914923,473
3.714180559379775,473
3.7150140828446268,472
3.7158476063094787,468
3.7166811297743307,465
3.7175146532391823,464
3.7183481767040343,463
3.7191817001688863,460
3.720015223633738,456
3.72084874709859,455
3.7216822705634414,454
3.7225157940282934,450
3.7233493174931453,446
3.724182840957997,443
3.725016364422849,442
3.725849887887701,438
3.7266834113525524,433
3.7275169348174044,429
3.7283504582822564,428
3.729183981747108,424
3.73001750521196,422
3.730851028676812,418
3.7316845521416635,416
3.7325180756065155,414
3.733351599071367,411
3.734185122536219,409
3.735018646001071,409
3.7358521694659226,408
3.7366856929307746,405
3.7375192163956266,403
3.738352739860478,403
3.73918626332533,401
3.740019786790182,397
3.7408533102550336,394
3.7416868337198856,394
3.7425203571847376,393
3.743353880649589,389
3.744187404114441,386
3.7450209275792927,385
3.7458544510441447,385
3.7466879745089967,382
3.7475214979738483,381
3.7483550214387003,381
3.7491885449035522,381
3.750022068368404,379
3.750855591833256,377
3.751689115298108,376
3.7525226387629593,375
3.7533561622278113,373
3.7541896856926633,371
3.755023209157515,370
3.755856732622367,369
3.756690256087219,366
3.7575237795520704,364
3.7583573030169224,362
3.759190826481774,363
3.760024349946626,360
3.760857873411478,358
3.7616913968763295,358
3.7625249203411815,359
3.7633584438060335,357
3.764191967270885,355
3.765025490735737,354
3.765859014200589,355
3.7666925376654405,354
3.7675260611302925,352
3.7683595845951445,352
3.769193108059996,353
3.770026631524848,351
3.7708601549896996,348
3.7716936784545516,347
3.7725272019194036,347
3.773360725384255,344
3.774194248849107,341
3.775027772313959,339
3.7758612957788107,338
3.7766948192436627,336
3.7775283427085147,334
3.7783618661733662,332
3.779195389638218,332
3.78002891310307,331
3.7808624365679218,329
3.7816959600327738,328
3.7825294834976253,330
3.7833630069624773,329
3.7841965304273293,328
3.785030053892181,329
3.785863577357033,330
3.786697100821885,329
3.7875306242867364,327
3.7883641477515884,326
3.7891976712164404,327
3.790031194681292,325
3.790864718146144,323
3.791698241610996,324
3.7925317650758474,325
3.7933652885406994,323
3.794198812005551,321
3.795032335470403,322
3.795865858935255,321
3.7966993824001065,320
3.7975329058649585,319
3.7983664293298105,318
3.799199952794662,318
3.800033476259514,318
3.800866999724366,318
3.8017005231892176,318
3.8025340466540696,318
3.8033675701189216,317
3.804201093583773,316
3.805034617048625,316
3.8058681405134767,317
3.8067016639783287,316
3.8075351874431806,315
3.808368710908032,315
3.809202234372884,315
3.810035757837736,314
3.8108692813025877,312
3.8117028047674397,314
3.8125363282322917,314
3.8133698516971433,312
3.8142033751619953,311
3.8150368986268473,313
3.815870422091699,313
3.816703945556551,311
3.8175374690214023,310
3.8183709924862543,311
3.8192045159511063,310
3.820038039415958,309
3.82087156288081,307
3.821705086345662,307
3.8225386098105134,306
3.8233721332753654,305
3.8242056567402174,304
3.825039180205069,304
3.825872703669921,303
3.826706227134773,302
3.8275397505996245,302
3.8283732740644765,303
3.829206797529328,302
3.83004032099418,301
3.830873844459032,302
3.8317073679238836,303
3.8325408913887355,303
3.8333744148535875,302
3.834207938318439,303
3.835041461783291,303
3.835874985248143,302
3.8367085087129946,301
3.8375420321778466,304
3.8383755556426986,302
3.83920907910755,302
3.840042602572402,301
3.840876126037254,302
3.8417096495021057,300
3.8425431729669577,299
3.8433766964318092,299
3.8442102198966612,298
3.8450437433615132,297
3.8458772668263648,296
3.8467107902912168,296
3.8475443137560688,296
3.8483778372209203,297
3.8492113606857723,297
3.8500448841506243,298
3.850878407615476,299
3.851711931080328,300
3.85254545454518,301
3.8533789780100314,302
3.8542125014748834,302
3.855046024939735,302
3.855879548404587,303
3.856713071869439,303
3.8575465953342905,304
3.8583801187991424,303
3.8592136422639944,304
3.860047165728846,305
3.860880689193698,305
3.86171421265855,305
3.8625477361234015,305
3.8633812595882535,304
3.8642147830531055,304
3.865048306517957,306
3.865881829982809,306
3.8667153534476606,306
3.8675488769125126,306
3.8683824003773646,307
3.869215923842216,307
3.870049447307068,308
3.87088297077192,310
3.8717164942367717,311
3.8725500177016237,311
3.8733835411664757,310
3.874217064631327,311
3.875050588096179,313
3.875884111561031,313
3.8767176350258827,312
3.8775511584907347,314
3.8783846819555863,314
3.8792182054204383,314
3.8800517288852903,314
3.880885252350142,316
3.881718775814994,316
3.882552299279846,317
3.8833858227446973,318
3.8842193462095493,318
3.8850528696744013,320
3.885886393139253,320
3.886719916604105,321
3.887553440068957,321
3.8883869635338084,321
3.8892204869986604,321
3.890054010463512,321
3.890887533928364,320
3.891721057393216,320
3.8925545808580675,320
3.8933881043229195,319
3.8942216277877715,320
3.895055151252623,321
3.895888674717475,321
3.896722198182327,321
3.8975557216471786,322
3.8983892451120306,324
3.8992227685768825,326
3.900056292041734,326
3.900889815506586,326
3.9017233389714376,328
3.9025568624362896,328
3.9033903859011416,328
3.904223909365993,330
3.905057432830845,331
3.905890956295697,332
3.9067244797605487,331
3.9075580032254007,332
3.9083915266902527,332
3.9092250501551042,331
3.9100585736199562,330
3.9108920970848082,330
3.9117256205496598,330
3.9125591440145118,331
3.9133926674793633,330
3.9142261909442153,330
3.9150597144090673,331
3.915893237873919,331
3.916726761338771,331
3.917560284803623,333
3.9183938082684744,334
3.9192273317333264,335
3.9200608551981784,336
3.92089437866303,336
3.921727902127882,336
3.922561425592734,338
3.9233949490575855,338
3.9242284725224374,338
3.925061995987289,338
3.925895519452141,338
3.926729042916993,337
3.9275625663818445,337
3.9283960898466965,339
3.9292296133115485,339
3.9300631367764,341
3.930896660241252,341
3.931730183706104,342
3.9325637071709556,342
3.9333972306358076,343
3.9342307541006596,343
3.935064277565511,343
3.935897801030363,344
3.936731324495215,344
3.9375648479600667,345
3.9383983714249187,345
3.93923189488977,345
3.940065418354622,345
3.940898941819474,346
3.9417324652843257,346
3.9425659887491777,347
3.9433995122140297,347
3.9442330356788813,347
3.9450665591437333,348
3.9459000826085853,347
3.946733606073437,349
3.947567129538289,350
3.948400653003141,351
3.9492341764679924,351
3.9500676999328443,352
3.950901223397696,352
3.951734746862548,352
3.9525682703274,354
3.9534017937922514,354
3.9542353172571034,355
3.9550688407219554,355
3.955902364186807,356
3.956735887651659,355
3.957569411116511,355
3.9584029345813625,355
3.9592364580462145,353
3.9600699815110665,353
3.960903504975918,353
3.96173702844077,354
3.9625705519056216,354
3.9634040753704736,354
3.9642375988353256,355
3.965071122300177,356
3.965904645765029,356
3.966738169229881,358
3.9675716926947326,360
3.9684052161595846,360
3.9692387396244366,361
3.970072263089288,361
3.97090578655414,362
3.971739310018992,361
3.9725728334838437,362
3.9734063569486957,362
3.9742398804135473,364
3.9750734038783992,364
3.9759069273432512,363
3.976740450808103,364
3.977573974272955,364
3.9784074977378068,363
3.9792410212026583,363
3.9800745446675103,364
3.9809080681323623,364
3.981741591597214,364
3.982575115062066,364
3.983408638526918,365
3.9842421619917694,364
3.9850756854566214,365
3.985909208921473,366
3.986742732386325,366
3.987576255851177,367
3.9884097793160285,367
3.9892433027808805,368
3.9900768262457325,368
3.990910349710584,368
3.991743873175436,369
3.992577396640288,369
3.9934109201051395,369
3.9942444435699915,370
3.9950779670348435,369
3.995911490499695,370
3.996745013964547,370
3.9975785374293986,372
3.9984120608942506,372
3.9992455843591026,373
4.000079107823955,373
4.000912631288807,373
4.001746154753658,374
4.00257967821851,374
4.003413201683362,374
4.004246725148214,374
4.005080248613066,375
4.005913772077917,375
4.006747295542769,375
4.007580819007621,374
4.008414342472473,374
4.009247865937325,374
4.010081389402177,374
4.010914912867028,375
4.01174843633188,376
4.012581959796732,376
4.013415483261584,376
4.014249006726436,376
4.015082530191288,377
4.015916053656139,378
4.016749577120991,378
4.017583100585843,379
4.018416624050695,380
4.019250147515547,380
4.020083670980398,382
4.02091719444525,383
4.021750717910102,383
4.022584241374954,383
4.023417764839806,384
4.024251288304658,384
4.025084811769509,383
4.025918335234361,382
4.026751858699213,381
4.027585382164065,381
4.028418905628917,382
4.029252429093768,381
4.03008595255862,382
4.030919476023472,381
4.031752999488324,382
4.032586522953176,382
4.033420046418028,382
4.034253569882879,384
4.035087093347731,385
4.035920616812583,386
4.036754140277435,386
4.037587663742287,387
4.038421187207139,387
4.03925471067199,388
4.040088234136842,389
4.040921757601694,388
4.041755281066546,388
4.042588804531398,389
4.043422327996249,389
4.044255851461101,388
4.045089374925953,387
4.045922898390805,389
4.046756421855657,389
4.047589945320509,389
4.04842346878536,388
4.049256992250212,388
4.050090515715064,388
4.050924039179916,388
4.051757562644768,388
4.0525910861096195,389
4.0534246095744715,389
4.0542581330393235,389
4.0550916565041755,389
4.0559251799690275,389
4.0567587034338795,390
4.057592226898731,391
4.0584257503635826,391
4.0592592738284345,391
4.0600927972932865,392
4.0609263207581385,392
4.0617598442229905,392
4.062593367687842,392
4.063426891152694,393
4.064260414617546,392
4.065093938082398,394
4.06592746154725,395
4.066760985012101,395
4.067594508476953,395
4.068428031941805,396
4.069261555406657,398
4.070095078871509,399
4.070928602336361,398
4.071762125801212,397
4.072595649266064,397
4.073429172730916,397
4.074262696195768,396
4.07509621966062,396
4.075929743125471,397
4.076763266590323,396
4.077596790055175,396
4.078430313520027,396
4.079263836984879,396
4.080097360449731,397
4.080930883914582,398
4.081764407379434,399
4.082597930844286,399
4.083431454309138,400
4.08426497777399,400
4.085098501238842,401
4.085932024703693,401
4.086765548168545,402
4.087599071633397,403
4.088432595098249,403
4.089266118563101,404
4.090099642027952,404
4.090933165492804,404
4.091766688957656,404
4.092600212422508,403
4.09343373588736,403
4.094267259352212,403
4.095100782817063,402
4.095934306281915,402
4.096767829746767,402
4.097601353211619,402
4.098434876676471,402
4.099268400141323,402
4.100101923606174,403
4.100935447071026,403
4.101768970535878,404
4.10260249400073,405
4.103436017465582,405
4.104269540930433,407
4.105103064395285,408
4.105936587860137,408
4.106770111324989,407
4.107603634789841,407
4.108437158254693,408
4.109270681719544,407
4.110104205184396,407
4.110937728649248,408
4.1117712521141,409
4.112604775578952,408
4.113438299043803,408
4.114271822508655,410
4.115105345973507,410
4.115938869438359,410
4.116772392903211,411
4.117605916368063,412
4.1184394398329145,412
4.1192729632977665,414
4.1201064867626185,414
4.1209400102274705,416
4.1217735336923225,416
4.1226070571571745,416
4.123440580622026,417
4.124274104086878,416
4.1251076275517295,416
4.1259411510165815,417
4.1267746744814335,416
4.127608197946285,416
4.128441721411137,417
4.129275244875989,418
4.130108768340841,418
4.130942291805693,418
4.131775815270545,419
4.132609338735396,419
4.133442862200248,421
4.1342763856651,423
4.135109909129952,424
4.135943432594804,425
4.136776956059655,426
4.137610479524507,427
4.138444002989359,428
4.139277526454211,429
4.140111049919063,428
4.140944573383915,428
4.141778096848766,428
4.142611620313618,428
4.14344514377847,427
4.144278667243322,427
4.145112190708174,427
4.145945714173026,428
4.146779237637877,429
4.147612761102729,430
4.148446284567581,431
4.149279808032433,431
4.150113331497285,431
4.150946854962136,432
4.151780378426988,433
4.15261390189184,434
4.153447425356692,433
4.154280948821544,433
4.155114472286396,434
4.155947995751247,434
4.156781519216099,434
4.157615042680951,434
4.158448566145803,434
4.159282089610655,433
4.160115613075506,432
4.160949136540358,432
4.16178266000521,432
4.162616183470062,432
4.163449706934914,432
4.164283230399766,431
4.165116753864617,431
4.165950277329469,430
4.166783800794321,431
4.167617324259173,431
4.168450847724025,431
4.169284371188877,432
4.170117894653728,432
4.17095141811858,433
4.171784941583432,433
4.172618465048284,434
4.173451988513136,434
4.174285511977987,433
4.175119035442839,432
4.175952558907691,432
4.176786082372543,431
4.177619605837395,431
4.178453129302247,432
4.179286652767098,432
4.18012017623195,432
4.180953699696802,433
4.181787223161654,433
4.182620746626506,433
4.183454270091358,434
4.1842877935562095,434
4.1851213170210615,435
4.1859548404859135,435
4.1867883639507655,436
4.1876218874156175,436
4.188455410880469,436
4.189288934345321,436
4.190122457810173,436
4.1909559812750246,436
4.1917895047398765,435
4.1926230282047285,436
4.19345655166958,436
4.194290075134432,435
4.195123598599284,434
4.195957122064136,434
4.196790645528988,435
4.197624168993839,434
4.198457692458691,434
4.199291215923543,433
4.200124739388395,434
4.200958262853247,434
4.201791786318099,434
4.20262530978295,434
4.203458833247802,434
4.204292356712654,435
4.205125880177506,435
4.205959403642358,434
4.20679292710721,434
4.207626450572061,434
4.208459974036913,434
4.209293497501765,434
4.210127020966617,433
4.210960544431469,433
4.21179406789632,433
4.212627591361172,434
4.213461114826024,433
4.214294638290876,434
4.215128161755728,435
4.21596168522058,436
4.216795208685431,436
4.217628732150283,437
4.218462255615135,437
4.219295779079987,437
4.220129302544839,438
4.22096282600969,438
4.221796349474542,439
4.222629872939394,438
4.223463396404246,438
4.224296919869098,438
4.22513044333395,437
4.225963966798801,436
4.226797490263653,437
4.227631013728505,436
4.228464537193357,437
4.229298060658209,435
4.230131584123061,435
4.230965107587912,435
4.231798631052764,436
4.232632154517616,437
4.233465677982468,438
4.23429920144732,439
4.235132724912171,440
4.235966248377023,441
4.236799771841875,441
4.237633295306727,441
4.238466818771579,441
4.239300342236431,441
4.240133865701282,441
4.240967389166134,441
4.241800912630986,441
4.242634436095838,440
4.24346795956069,439
4.244301483025541,440
4.245135006490393,439
4.245968529955245,439
4.246802053420097,439
4.247635576884949,440
4.248469100349801,440
4.2493026238146525,440
4.2501361472795045,440
4.2509696707443565,440
4.2518031942092085,440
4.2526367176740605,441
4.2534702411389125,440
4.254303764603764,440
4.255137288068616,440
4.255970811533468,440
4.25680433499832,440
4.2576378584631716,441
4.258471381928023,440
4.259304905392875,441
4.260138428857727,441
4.260971952322579,441
4.261805475787431,442
4.262638999252283,443
4.263472522717134,444
4.264306046181986,443
4.265139569646838,444
4.26597309311169,444
4.266806616576542,446
4.267640140041394,446
4.268473663506245,444
4.269307186971097,445
4.270140710435949,447
4.270974233900801,447
4.271807757365653,445
4.272641280830504,444
4.273474804295356,444
4.274308327760208,443
4.27514185122506,443
4.275975374689912,442
4.276808898154764,441
4.277642421619615,441
4.278475945084467,441
4.279309468549319,441
4.280142992014171,441
4.280976515479023,443
4.281810038943874,442
4.282643562408726,442
4.283477085873578,444
4.28431060933843,446
4.285144132803282,447
4.285977656268134,446
4.286811179732985,447
4.287644703197837,448
4.288478226662689,448
4.289311750127541,446
4.290145273592393,446
4.290978797057245,448
4.291812320522096,448
4.292645843986948,447
4.2934793674518,447
4.294312890916652,447
4.295146414381504,448
4.295979937846355,446
4.296813461311207,445
4.297646984776059,446
4.298480508240911,446
4.299314031705763,446
4.300147555170615,446
4.300981078635466,446
4.301814602100318,447
4.30264812556517,447
4.303481649030022,447
4.304315172494874,449
4.305148695959725,451
4.305982219424577,450
4.306815742889429,449
4.307649266354281,449
4.308482789819133,451
4.309316313283985,450
4.3101498367488364,449
4.310983360213688,450
4.31181688367854,451
4.312650407143392,451
4.313483930608244,450
4.314317454073096,450
4.3151509775379475,452
4.3159845010027995,452
4.3168180244676515,451
4.3176515479325035,450
4.3184850713973555,451
4.319318594862207,451
4.320152118327059,451
4.320985641791911,450
4.321819165256763,449
4.322652688721615,449
4.323486212186467,449
4.324319735651318,448
4.32515325911617,449
4.325986782581022,450
4.326820306045874,449
4.327653829510726,448
4.328487352975577,449
4.329320876440429,451
4.330154399905281,450
4.330987923370133,449
4.331821446834985,451
4.332654970299837,452
4.333488493764688,452
4.33432201722954,451
4.335155540694392,451
4.335989064159244,453
4.336822587624096,453
4.337656111088948,453
4.338489634553799,452
4.339323158018651,455
4.340156681483503,454
4.340990204948355,452
4.341823728413207,450
4.342657251878058,450
4.34349077534291,449
4.344324298807762,449
4.345157822272614,448
4.345991345737466,449
4.346824869202318,450
4.347658392667169,449
4.348491916132021,448
4.349325439596873,450
4.350158963061725,453
4.350992486526577,453
4.351826009991428,452
4.35265953345628,454
4.353493056921132,455
4.354326580385984,455
4.355160103850836,453
4.355993627315688,454
4.356827150780539,456
4.357660674245391,455
4.358494197710243,453
4.359327721175095,454
4.360161244639947,456
4.360994768104799,455
4.36182829156965,454
4.362661815034502,453
4.363495338499354,455
4.364328861964206,455
4.365162385429058,454
4.365995908893909,453
4.366829432358761,454
4.367662955823613,453
4.368496479288465,453
4.369330002753317,453
4.370163526218169,453
4.37099704968302,455
4.371830573147872,454
4.372664096612724,454
4.373497620077576,455
4.374331143542428,456
4.37516466700728,455
4.3759981904721315,455
4.3768317139369834,454
4.377665237401835,456
4.378498760866687,455
4.379332284331539,455
4.3801658077963905,454
4.3809993312612425,456
4.3818328547260945,456
4.3826663781909465,454
4.3834999016557985,454
4.3843334251206505,457
4.385166948585502,457
4.386000472050354,457
4.386833995515206,456
4.387667518980058,457
4.38850104244491,457
4.389334565909761,456
4.390168089374613,456
4.391001612839465,455
4.391835136304317,455
4.392668659769169,454
4.393502183234021,454
4.394335706698872,454
4.395169230163724,455
4.396002753628576,456
4.396836277093428,456
4.39766980055828,456
4.398503324023132,457
4.399336847487983,459
4.400170370952835,458
4.401003894417687,459
4.401837417882539,460
4.402670941347391,462
4.403504464812242,461
4.404337988277094,461
4.405171511741946,460
4.406005035206798,462
4.40683855867165,461
4.407672082136502,460
