Horizontal,Vertical
0,0
1.203125,-0.244140625
2.419921875,-0.109375
3.55078125,0.5234375
4.5302734375,1.4365234375
5.3271484375,2.2109375
5.962890625,2.5009765625
6.474609375,2.271484375
6.9189453125,1.8173828125
7.341796875,1.55078125
7.7822265625,1.708984375
8.2470703125,2.1787109375
8.6923828125,2.5478515625
9.02734375,2.3798828125
9.166015625,1.541015625
9.087890625,0.33984375
8.875,-0.6259765625
8.6513671875,-0.876953125
8.494140625,-0.392578125
8.373046875,0.3310546875
8.1787109375,0.591796875
7.7861328125,-0.0400390625
7.16796875,-1.408203125
6.4140625,-2.7841796875
5.7275390625,-3.2607421875
5.306640625,-2.3076171875
5.2509765625,-0.140625
5.517578125,2.3173828125
5.9345703125,3.9072265625
6.2939453125,3.83984375
6.4248046875,2.1083984375
6.248046875,-0.5361328125
5.7705078125,-3.0244140625
5.0380859375,-4.5146484375
4.109375,-4.7890625
3.0810546875,-4.2470703125
2.091796875,-3.576171875
1.32421875,-3.3388671875
0.900390625,-3.6923828125
0.80859375,-4.39453125
0.8720703125,-5.0263671875
0.8212890625,-5.2890625
0.490234375,-5.1318359375
-0.0654296875,-4.7158203125
-0.568359375,-4.2333984375
-0.6484375,-3.759765625
-0.10546875,-3.2216796875
0.966796875,-2.5166015625
2.1845703125,-1.6884765625
3.0732421875,-0.9638671875
3.2919921875,-0.6044921875
2.8095703125,-0.6611328125
1.91015625,-0.8330078125
1.0927734375,-0.6357421875
0.8349609375,0.203125
1.3837890625,1.3916015625
2.638671875,2.08984375
4.1884765625,1.373046875
5.5,-1.15234375
6.115234375,-4.9599609375
5.810546875,-8.7587890625
4.6611328125,-11.17578125
2.9892578125,-11.544921875
1.224609375,-10.318359375
-0.240234375,-8.7919921875
-1.1845703125,-8.310546875
-1.6884765625,-9.48828125
-2.2763671875,-11.9248046875
-3.9970703125,-14.59375
-8.2783203125,-16.5791015625
-16.484375,-17.7158203125
-29.2890625,-18.7099609375
-46.2119140625,-20.716796875
-65.5302734375,-24.646484375
-84.6826171875,-30.6171875
-101.0244140625,-37.87109375
-112.63671875,-45.1611328125
-118.8486328125,-51.2978515625
-120.2783203125,-55.568359375
-118.4501953125,-57.87890625
-115.169921875,-58.6630859375
-111.9736328125,-58.677734375
-109.81640625,-58.697265625
-109.0078125,-59.2373046875
-109.31640625,-60.3701171875
-110.20703125,-61.740234375
-111.1162109375,-62.791015625
-111.6962890625,-63.08203125
-111.9375,-62.5517578125
-112.111328125,-61.583984375
-112.572265625,-60.8486328125
-113.5673828125,-60.9775390625
-115.1005859375,-62.244140625
-116.9248046875,-64.41015625
-118.6005859375,-66.7939453125
-119.6591796875,-68.544921875
-119.77734375,-69.0107421875
-118.916015625,-68.06640625
-117.357421875,-66.244140625
-115.634765625,-64.556640625
-114.400390625,-64.0302734375
-114.1787109375,-65.181640625
-115.173828125,-67.734375
-117.099609375,-70.740234375
-119.2568359375,-73.0322265625
-120.7607421875,-73.767578125
-120.88671875,-72.7890625
-119.3544921875,-70.669921875
-116.4267578125,-68.466796875
-112.837890625,-67.248046875
-109.5556640625,-67.6396484375
-107.43359375,-69.560546875
-106.8994140625,-72.2783203125
-107.7724609375,-74.7314453125
-109.3564453125,-76.0224609375
-110.7919921875,-75.8115234375
-111.4462890625,-74.4482421875
-111.1904296875,-72.75390625
-110.3486328125,-71.5888671875
-109.4423828125,-71.443359375
-108.8515625,-72.2177734375
-108.607421875,-73.3212890625
-108.421875,-73.98828125
-107.892578125,-73.6923828125
-106.7568359375,-72.4228515625
-105.078125,-70.7353515625
-103.2685546875,-69.5029296875
-101.943359375,-69.4990234375
-101.6689453125,-70.95703125
-102.69140625,-73.3916015625
-104.7529296875,-75.7802734375
-107.134765625,-77.080078125
-108.9287109375,-76.806640625
-109.400390625,-75.291015625
-108.2890625,-73.45703125
-105.888671875,-72.2314453125
-102.869140625,-71.9921875
-99.96875,-72.4033203125
-97.72265625,-72.728515625
-96.322265625,-72.40234375
-95.66015625,-71.447265625
-95.4541015625,-70.50390625
-95.4072265625,-70.42578125
-95.3349609375,-71.7470703125
-95.2568359375,-74.3203125
-95.3583984375,-77.353515625
-95.8427734375,-79.810546875
-96.78125,-80.8876953125
-98.0439453125,-80.357421875
-99.3916015625,-78.580078125
-100.630859375,-76.3251953125
-101.7548828125,-74.4599609375
-102.9208984375,-73.6796875
-104.2998046875,-74.2880859375
-105.9111328125,-76.0693359375
-107.5322265625,-78.345703125
-108.76953125,-80.23828125
-109.232421875,-81.0419921875
-108.7578125,-80.5859375
-107.4990234375,-79.34765625
-105.9013671875,-78.2548828125
-104.4775390625,-78.2001953125
-103.611328125,-79.5703125
-103.3740234375,-82.0234375
-103.525390625,-84.6552734375
-103.654296875,-86.466796875
-103.38671875,-86.8671875
-102.5576171875,-85.9560546875
-101.27734375,-84.3876953125
-99.8505859375,-82.9677734375
-98.6337890625,-82.2216796875
-97.892578125,-82.1845703125
-97.716796875,-82.5146484375
-98.0048828125,-82.783203125
-98.498046875,-82.751953125
-98.8857421875,-82.482421875
-98.9169921875,-82.2197265625
-98.490234375,-82.166015625
-97.6689453125,-82.3056640625
-96.67578125,-82.43359375
-95.7978515625,-82.326171875
-95.3037109375,-81.92578125
-95.3564453125,-81.4052734375
-95.9892578125,-81.072265625
-97.1005859375,-81.2109375
-98.4716796875,-81.93359375
-99.833984375,-83.1025390625
-100.9287109375,-84.3408203125
-101.607421875,-85.158203125
-101.86328125,-85.1640625
-101.8115234375,-84.2978515625
-101.59765625,-82.943359375
-101.333984375,-81.791015625
-101.0791015625,-81.5146484375
-100.8896484375,-82.4111328125
-100.8076171875,-84.2080078125
-100.861328125,-86.1376953125
-101.0244140625,-87.28125
-101.21875,-87.064453125
-101.38671875,-85.6376953125
-101.54296875,-83.8662109375
-101.7626953125,-82.8955078125
-102.1044921875,-83.5205078125
-102.5205078125,-85.7275390625
-102.8671875,-88.669921875
-103.0029296875,-91.0546875
-102.9306640625,-91.775390625
-102.8544921875,-90.453125
-103.0888671875,-87.6435546875
-103.8837890625,-84.6044921875
-105.248046875,-82.7041015625
-106.9052734375,-82.794921875
-108.427734375,-84.7998046875
-109.390625,-87.7509765625
-109.5400390625,-90.2158203125
-108.8818359375,-90.986328125
-107.6494140625,-89.6630859375
-106.2353515625,-86.8671875
-105.060546875,-83.904296875
-104.4091796875,-82.078125
-104.3037109375,-81.9970703125
-104.4560546875,-83.2998046875
-104.3984375,-84.9189453125
-103.69921875,-85.75390625
-102.18359375,-85.2724609375
-100.0244140625,-83.724609375
-97.66796875,-81.888671875
-95.615234375,-80.599609375
-94.2236328125,-80.31640625
-93.580078125,-80.970703125
-93.5087890625,-82.115234375
-93.7294921875,-83.2607421875
-94.0146484375,-84.1552734375
-94.3173828125,-84.8603515625
-94.755859375,-85.544921875
-95.4833984375,-86.2431640625
-96.548828125,-86.7197265625
-97.8076171875,-86.62109375
-98.9853515625,-85.822265625
-99.79296875,-84.6904296875
-100.0673828125,-84.0126953125
-99.8486328125,-84.5458984375
-99.3505859375,-86.5029296875
-98.853515625,-89.2880859375
-98.5166015625,-91.740234375
-98.283203125,-92.7470703125
-97.8701171875,-91.8740234375
-96.9697265625,-89.62890625
-95.4443359375,-87.1494140625
-93.4775390625,-85.5546875
-91.54296875,-85.33203125
-90.1904296875,-86.1435546875
-89.78515625,-87.1513671875
-90.3486328125,-87.607421875
-91.5458984375,-87.3173828125
-92.8662109375,-86.681640625
-93.8017578125,-86.31640625
-94.0224609375,-86.603515625
-93.4697265625,-87.4267578125
-92.3642578125,-88.28515625
-91.14453125,-88.662109375
-90.3095703125,-88.400390625
-90.2021484375,-87.8125
-90.83984375,-87.462890625
-91.90234375,-87.7685546875
-92.888671875,-88.6806640625
-93.3818359375,-89.69140625
-93.2373046875,-90.134765625
-92.658203125,-89.6142578125
-92.0419921875,-88.283203125
-91.7734375,-86.7919921875
-92.0361328125,-85.9091796875
-92.7509765625,-86.076171875
-93.6513671875,-87.1298828125
-94.447265625,-88.3759765625
-94.9951171875,-88.9580078125
-95.38671875,-88.3134765625
-95.8828125,-86.5078125
-96.74609375,-84.23828125
-98.0380859375,-82.4912109375
-99.51953125,-82.0234375
-100.703125,-82.939453125
-101.0712890625,-84.609375
-100.3232421875,-85.9833984375
-98.5166015625,-86.162109375
-96.080078125,-84.93359375
-93.6640625,-82.9609375
-91.9052734375,-81.48828125
-91.203125,-81.6767578125
-91.5703125,-83.935546875
-92.66015625,-87.640625
-93.953125,-91.4033203125
-95.0087890625,-93.7529296875
-95.6181640625,-93.8564453125
-95.814453125,-91.92578125
-95.7685546875,-89.09765625
-95.630859375,-86.87109375
-95.4267578125,-86.3798828125
-95.068359375,-87.859375
-94.4169921875,-90.560546875
-93.3837890625,-93.1630859375
-91.978515625,-94.4912109375
-90.30859375,-94.1044921875
-88.552734375,-92.470703125
-86.91796875,-90.6201171875
-85.6328125,-89.52734375
-84.87890625,-89.58984375
-84.7958984375,-90.5009765625
-85.4296875,-91.5498046875
-86.7353515625,-92.1123046875
-88.5400390625,-92.0087890625
-90.5546875,-91.5029296875
-92.447265625,-91.021484375
-93.9921875,-90.8095703125
-95.265625,-90.787109375
-96.6455078125,-90.6689453125
-98.615234375,-90.2392578125
-101.4443359375,-89.609375
-104.9423828125,-89.22265625
-108.41015625,-89.595703125
-110.90234375,-90.9306640625
-111.6240234375,-92.8896484375
-110.322265625,-94.7255859375
-107.4189453125,-95.6826171875
-103.84375,-95.453125
-100.6513671875,-94.41015625
-98.6171875,-93.4580078125
-98.0068359375,-93.560546875
-98.5634765625,-95.1728515625
-99.7177734375,-97.95703125
-100.890625,-100.9072265625
-101.7578125,-102.8857421875
-102.330078125,-103.2177734375
-102.8623046875,-102.048828125
-103.6162109375,-100.216796875
-104.6748046875,-98.78515625
-105.8994140625,-98.4931640625
-107.0478515625,-99.4072265625
-107.94921875,-101.015625
-108.6201171875,-102.5947265625
-109.173828125,-103.6640625
-109.53515625,-104.1748046875
-109.0634765625,-104.4033203125
-106.43359375,-104.61328125
-99.951171875,-104.7548828125
-88.3115234375,-104.3798828125
-71.3916015625,-102.8896484375
-50.6552734375,-99.958984375
-28.869140625,-95.8740234375
-9.26171875,-91.5390625
5.529296875,-88.1455078125
14.232421875,-86.638671875
17.15625,-87.3095703125
15.8173828125,-89.7119140625
12.2900390625,-92.8955078125
8.529296875,-95.8134765625
5.9453125,-97.6865234375
5.2470703125,-98.1767578125
6.47265625,-97.4365234375
9.14453125,-95.994140625
12.46875,-94.5888671875
15.5771484375,-93.9599609375
17.779296875,-94.59375
18.7294921875,-96.556640625
18.46484375,-99.4599609375
17.333984375,-102.615234375
15.8203125,-105.3271484375
14.38671875,-107.1728515625
13.333984375,-108.1123046875
12.7529296875,-108.3984375
12.5498046875,-108.396484375
12.5283203125,-108.4248046875
12.498046875,-108.72265625
12.337890625,-109.423828125
12.0458984375,-110.4990234375
11.7509765625,-111.6904296875
11.6884765625,-112.5322265625
12.1279296875,-112.546875
13.251953125,-111.513671875
15.1005859375,-109.6591796875
17.552734375,-107.6435546875
20.4150390625,-106.3056640625
23.49609375,-106.244140625
26.6279296875,-107.49609375
29.62109375,-109.470703125
32.216796875,-111.2392578125
34.1220703125,-111.98828125
35.1123046875,-111.376953125
35.130859375,-109.6162109375
34.3251953125,-107.29296875
33.0107421875,-105.099609375
31.60546875,-103.62109375
30.5126953125,-103.19140625
29.9921875,-103.806640625
30.087890625,-105.1494140625
30.6396484375,-106.7470703125
31.37109375,-108.197265625
32.0029296875,-109.3671875
32.34765625,-110.455078125
32.353515625,-111.861328125
32.123046875,-113.9482421875
31.8720703125,-116.7421875
31.8447265625,-119.8115234375
32.2197265625,-122.3779296875
33.033203125,-123.69140625
34.1552734375,-123.3564453125
35.3447265625,-121.5185546875
36.34765625,-118.78125
36.9599609375,-115.9775390625
37.078125,-113.890625
36.705078125,-112.98046875
35.955078125,-113.2138671875
35.00390625,-114.1103515625
34.037109375,-114.9609375
33.2333984375,-115.1435546875
32.7431640625,-114.3818359375
32.6640625,-112.8251953125
32.958984375,-110.986328125
33.4072265625,-109.546875
33.6552734375,-109.07421875
33.357421875,-109.759765625
32.373046875,-111.2998046875
30.8623046875,-113.0302734375
29.2529296875,-114.236328125
28.05078125,-114.4921875
27.599609375,-113.8720703125
27.8916015625,-112.953125
28.57421875,-112.572265625
29.150390625,-113.3916015625
29.240234375,-115.4921875
28.7431640625,-118.2177734375
27.810546875,-120.4736328125
26.6767578125,-121.2666015625
25.5029296875,-120.251953125
24.310546875,-117.94140625
23.0185546875,-115.4892578125
21.5556640625,-114.158203125
19.9755859375,-114.728515625
18.515625,-117.1455078125
17.5478515625,-120.5556640625
17.4306640625,-123.7119140625
18.322265625,-125.53125
20.0400390625,-125.52734375
22.0869140625,-123.9560546875
23.8154296875,-121.6328125
24.7265625,-119.5263671875
24.6904296875,-118.333984375
24.0244140625,-118.1767578125
23.3427734375,-118.5966796875
23.287109375,-118.8291015625
24.21875,-118.232421875
26.033203125,-116.650390625
28.1806640625,-114.521484375
29.884765625,-112.630859375
30.4990234375,-111.6923828125
29.8046875,-111.953125
28.103515625,-113.091796875
26.0703125,-114.3955078125
24.4384765625,-115.1337890625
23.7060546875,-114.896484375
23.9794921875,-113.8095703125
25.0078125,-112.4775390625
26.3466796875,-111.7177734375
27.572265625,-112.154296875
28.4287109375,-113.8701171875
28.876953125,-116.33203125
29.03515625,-118.6318359375
29.0791015625,-119.92578125
29.1171875,-119.8330078125
29.130859375,-118.6171875
29.0126953125,-117.0703125
28.6611328125,-116.134765625
28.08984375,-116.44140625
27.4677734375,-117.98828125
27.0576171875,-120.1337890625
27.08203125,-121.9208984375
27.58984375,-122.548828125
28.3818359375,-121.73828125
29.0517578125,-119.8671875
29.12890625,-117.8076171875
28.255859375,-116.5546875
26.345703125,-116.78125
23.6630859375,-118.5341796875
20.7900390625,-121.18359375
18.4619140625,-123.6787109375
17.3125,-125
17.642578125,-124.5966796875
19.3359375,-122.6416015625
21.921875,-119.9658203125
24.736328125,-117.697265625
27.123046875,-116.755859375
28.62890625,-117.4345703125
29.1328125,-119.244140625
28.8603515625,-121.1533203125
28.2509765625,-122.0732421875
27.7431640625,-121.4111328125
27.587890625,-119.380859375
27.771484375,-116.921875
28.087890625,-115.236328125
28.2626953125,-115.1923828125
28.0810546875,-116.8798828125
27.46875,-119.544921875
26.5234375,-121.9130859375
25.46484375,-122.7919921875
24.5625,-121.658203125
24.0341796875,-118.9345703125
23.9873046875,-115.810546875
24.404296875,-113.6494140625
25.1533203125,-113.3427734375
26.0166015625,-114.900390625
26.76171875,-117.4736328125
27.1884765625,-119.7841796875
27.2021484375,-120.7919921875
26.8427734375,-120.240234375
26.255859375,-118.76171875
25.6416015625,-117.4609375
25.1826171875,-117.255859375
24.966796875,-118.337890625
24.953125,-120.1162109375
24.986328125,-121.638671875
24.8984375,-122.234375
24.5947265625,-121.935546875
24.08203125,-121.4208984375
23.41796875,-121.51953125
22.6708984375,-122.638671875
21.888671875,-124.4560546875
21.1455078125,-126.0712890625
20.56640625,-126.5283203125
20.34375,-125.4208984375
20.6630859375,-123.2099609375
21.599609375,-120.9990234375
23.0302734375,-119.921875
24.6279296875,-120.4970703125
25.962890625,-122.326171875
26.681640625,-124.3056640625
26.6904296875,-125.2412109375
26.208984375,-124.541015625
25.6787109375,-122.5859375
25.55859375,-120.5224609375
26.1416015625,-119.5517578125
27.4111328125,-120.1943359375
29.03515625,-121.994140625
30.4755859375,-123.84765625
31.1884765625,-124.7490234375
30.849609375,-124.4111328125
29.5009765625,-123.3798828125
27.51953125,-122.595703125
25.458984375,-122.720703125
23.826171875,-123.6787109375
22.90234375,-124.6806640625
22.6943359375,-124.7119140625
23.00390625,-123.2041015625
23.55078125,-120.4326171875
24.078125,-117.4365234375
24.4140625,-115.4580078125
24.482421875,-115.2958984375
24.287109375,-116.939453125
23.9140625,-119.6484375
23.517578125,-122.38671875
23.2724609375,-124.337890625
23.279296875,-125.1865234375
23.494140625,-125.087890625
23.7548828125,-124.3955078125
23.8818359375,-123.412109375
23.80078125,-122.287109375
23.5810546875,-121.1279296875
23.388671875,-120.15234375
23.4013671875,-119.6962890625
23.712890625,-120.033203125
24.2841796875,-121.126953125
24.9658203125,-122.5400390625
25.5908203125,-123.6357421875
26.078125,-123.943359375
26.4462890625,-123.462890625
26.751953125,-122.6953125
26.990234375,-122.37890625
27.05078125,-123.04296875
26.7763671875,-124.65625
26.0888671875,-126.5947265625
25.0966796875,-127.9609375
24.107421875,-128.1103515625
23.53515625,-127.087890625
23.7158203125,-125.6513671875
24.7314453125,-124.8720703125
26.314453125,-125.5341796875
27.9482421875,-127.6669921875
29.1142578125,-130.5068359375
29.5478515625,-132.8759765625
29.3173828125,-133.78515625
28.7041015625,-132.90234375
27.9921875,-130.66796875
27.2890625,-127.955078125
26.494140625,-125.4775390625
25.4365234375,-123.2431640625
24.091796875,-120.3623046875
22.798828125,-115.296875
22.3037109375,-106.427734375
23.5341796875,-92.716796875
27.1611328125,-74.12109375
33.2109375,-51.4765625
40.953125,-25.8173828125
49.1591796875,2.55078125
56.576171875,34.6298828125
62.3515625,72.55859375
66.263671875,118.708984375
68.69140625,174.5302734375
70.4072265625,239.6396484375
72.2060546875,311.560546875
74.5556640625,386.2041015625
77.462890625,458.880859375
80.5498046875,525.3330078125
83.3232421875,582.4814453125
85.44921875,628.7041015625
86.916015625,663.771484375
88.005859375,688.5234375
89.0869140625,704.3994140625
90.31640625,712.912109375
91.4228515625,715.2587890625
91.7626953125,712.154296875
90.634765625,703.9521484375
87.6142578125,690.8466796875
82.779296875,673.068359375
76.71875,651.060546875
70.4287109375,625.5634765625
65.029296875,597.5888671875
61.3642578125,568.2724609375
59.6904296875,538.6181640625
59.5869140625,509.2451171875
60.1552734375,480.2275390625
60.47265625,451.146484375
59.9814453125,421.3603515625
58.697265625,390.3857421875
57.0576171875,358.2744140625
55.63671875,325.74609375
54.8623046875,294.0400390625
54.859375,264.4873046875
55.4208984375,238.029296875
56.1201171875,214.890625
56.4482421875,194.5390625
56.04296875,175.9658203125
54.83203125,158.1318359375
53.060546875,140.3837890625
51.1689453125,122.68359375
49.603515625,105.5400390625
48.6669921875,89.697265625
48.4150390625,75.67578125
48.6865234375,63.3916015625
49.1640625,52.0888671875
49.4921875,40.6884765625
49.41796875,28.396484375
48.890625,15.244140625
48.07421875,2.2001953125
47.2392578125,-9.2626953125
46.6044921875,-17.9375
46.21484375,-23.5478515625
45.9345703125,-26.986328125
45.5625,-29.9267578125
44.986328125,-34.0205078125
44.2763671875,-40.107421875
43.61328125,-47.8671875
43.1298828125,-56.046875
42.7861328125,-63.142578125
42.37109375,-68.109375
41.66015625,-70.7958984375
40.58203125,-71.9091796875
39.3115234375,-72.5986328125
38.22265625,-73.8828125
37.7080078125,-76.236328125
37.9638671875,-79.5029296875
38.833984375,-83.107421875
39.853515625,-86.4111328125
40.447265625,-88.9853515625
40.193359375,-90.73046875
38.990234375,-91.83203125
37.0458984375,-92.6181640625
34.744140625,-93.390625
32.4990234375,-94.322265625
30.634765625,-95.427734375
29.3681640625,-96.626953125
28.7958984375,-97.861328125
28.87890625,-99.1904296875
29.3935546875,-100.779296875
29.955078125,-102.7822265625
30.1201171875,-105.193359375
29.5791015625,-107.76953125
28.3251953125,-110.078125
26.734375,-111.6767578125
25.43359375,-112.3486328125
25.056640625,-112.2763671875
25.916015625,-112.017578125
27.7890625,-112.2890625
29.9619140625,-113.6162109375
31.525390625,-116.0595703125
31.814453125,-119.138671875
30.7451171875,-122.0419921875
28.8662109375,-124.0185546875
27.0947265625,-124.7578125
26.2763671875,-124.513671875
26.783203125,-123.9189453125
28.35546875,-123.6328125
30.2265625,-124.0048828125
31.4970703125,-124.953125
31.5380859375,-126.0615234375
30.255859375,-126.8251953125
28.111328125,-126.921875
25.8720703125,-126.396484375
24.267578125,-125.6318359375
23.6533203125,-125.1240234375
23.9091796875,-125.1787109375
24.5400390625,-125.6630859375
24.970703125,-126.0244140625
24.8388671875,-125.58984375
24.142578125,-124.0400390625
23.1806640625,-121.744140625
22.3349609375,-119.7001953125
21.85546875,-119.072265625
21.7412109375,-120.537109375
21.78515625,-123.8525390625
21.73828125,-127.8603515625
21.470703125,-131.0078125
21.05078125,-132.13671875
20.6806640625,-131.10546875
20.5576171875,-128.8916015625
20.7451171875,-127.0302734375
21.1708984375,-126.7587890625
21.7099609375,-128.3515625
22.287109375,-131.0576171875
22.921875,-133.6357421875
23.6962890625,-135.1123046875
24.67578125,-135.3046875
25.841796875,-134.8154296875
27.05078125,-134.5576171875
28.0703125,-135.1328125
28.6494140625,-136.4638671875
28.607421875,-137.9111328125
27.9072265625,-138.7333984375
26.677734375,-138.5703125
25.173828125,-137.640625
23.67578125,-136.6015625
22.408203125,-136.1572265625
21.5185546875,-136.7060546875
21.060546875,-138.158203125
20.9912109375,-140.005859375
21.142578125,-141.6025390625
21.244140625,-142.466796875
21.013671875,-142.486328125
20.31640625,-141.890625
19.3173828125,-141.0556640625
18.4931640625,-140.29296875
18.4794921875,-139.7255859375
19.765625,-139.3212890625
22.44140625,-139.0009765625
26.0615234375,-138.7763671875
29.771484375,-138.787109375
32.59375,-139.2119140625
33.7626953125,-140.115234375
32.9609375,-141.349609375
30.3935546875,-142.5732421875
26.6767578125,-143.419921875
22.63671875,-143.7216796875
19.0703125,-143.640625
16.5693359375,-143.6298828125
15.44140625,-144.1435546875
15.69921875,-145.3310546875
17.107421875,-146.9150390625
19.2236328125,-148.3486328125
21.478515625,-149.12109375
23.306640625,-149.029296875
24.35546875,-148.255859375
24.6591796875,-147.265625
24.662109375,-146.5673828125
25.0146484375,-146.490234375
26.248046875,-147.0537109375
28.4814453125,-147.9873046875
31.3486328125,-148.87890625
34.138671875,-149.3544921875
36.1328125,-149.2509765625
36.8857421875,-148.685546875
36.4228515625,-147.9951171875
35.2197265625,-147.5966796875
33.9892578125,-147.8310546875
33.36328125,-148.841796875
33.6005859375,-150.4990234375
34.4345703125,-152.4404296875
35.1826171875,-154.1953125
35.0830078125,-155.361328125
33.697265625,-155.751953125
31.185546875,-155.421875
28.2685546875,-154.5966796875
25.8955078125,-153.5341796875
24.7890625,-152.447265625
25.109375,-151.5185546875
26.375,-150.9970703125
27.7236328125,-151.2177734375
28.3369140625,-152.416015625
27.8583984375,-154.4677734375
26.5693359375,-156.771484375
25.2275390625,-158.4091796875
24.646484375,-158.6083984375
25.228515625,-157.1787109375
26.6845703125,-154.669921875
28.126953125,-152.11328125
28.5224609375,-150.484375
27.2646484375,-150.23046875
24.568359375,-151.109375
21.4384765625,-152.4052734375
19.2041015625,-153.3466796875
18.8525390625,-153.5087890625
20.5361328125,-152.9677734375
23.51171875,-152.1962890625
26.52734375,-151.765625
28.4423828125,-152.0263671875
28.73828125,-152.908203125
27.64453125,-153.9775390625
25.90625,-154.677734375
24.35546875,-154.6728515625
23.5400390625,-154.0146484375
23.5625,-153.0625
24.203125,-152.2158203125
25.1376953125,-151.65625
26.1513671875,-151.302734375
27.1953125,-150.9736328125
28.3037109375,-150.640625
29.45703125,-150.5634765625
30.4794921875,-151.1748046875
31.025390625,-152.783203125
30.689453125,-155.2490234375
29.2001953125,-157.9267578125
26.6171875,-159.939453125
23.3779296875,-160.669921875
20.1669921875,-160.150390625
17.5927734375,-159.0810546875
15.9091796875,-158.4501953125
14.92578125,-158.9931640625
14.2021484375,-160.7861328125
13.3671875,-163.2197265625
12.3935546875,-165.337890625
11.6396484375,-166.3388671875
11.6591796875,-165.955078125
12.880859375,-164.505859375
15.3359375,-162.6318359375
18.576171875,-160.9375
21.8359375,-159.69921875
24.37109375,-158.7978515625
25.7724609375,-157.8828125
26.126953125,-156.673828125
25.9287109375,-155.2109375
25.7958984375,-153.8876953125
26.1513671875,-153.220703125
27.029296875,-153.5087890625
28.123046875,-154.60546875
29.01953125,-155.935546875
29.4814453125,-156.7841796875
29.580078125,-156.6787109375
29.6103515625,-155.66015625
29.884765625,-154.2666015625
30.529296875,-153.2216796875
31.4384765625,-153.015625
32.365234375,-153.658203125
33.0546875,-154.7470703125
33.341796875,-155.78125
33.1689453125,-156.4833984375
32.568359375,-156.9013671875
31.62109375,-157.263671875
30.4267578125,-157.7353515625
29.1025390625,-158.271484375
27.7470703125,-158.68359375
26.431640625,-158.859375
25.1884765625,-158.9208984375
24.0498046875,-159.1484375
23.0947265625,-159.748046875
22.46875,-160.6083984375
22.34375,-161.2880859375
22.845703125,-161.255859375
23.984375,-160.267578125
25.5966796875,-158.6455078125
27.3544921875,-157.1962890625
28.84375,-156.8095703125
29.70703125,-157.951171875
29.7880859375,-160.40234375
29.1806640625,-163.361328125
28.2099609375,-165.853515625
27.2841796875,-167.1982421875
26.736328125,-167.3134765625
26.689453125,-166.69921875
27.033203125,-166.107421875
27.5234375,-166.103515625
27.8974609375,-166.8056640625
27.96875,-167.955078125
27.6455078125,-169.16796875
26.9296875,-170.1591796875
25.8779296875,-170.80859375
24.5712890625,-171.0927734375
23.0791015625,-171.017578125
21.4990234375,-170.6357421875
20.00390625,-170.1123046875
18.8740234375,-169.7509765625
18.41015625,-169.8916015625
18.8056640625,-170.7080078125
20.03515625,-172.0341796875
21.8525390625,-173.361328125
23.8896484375,-174.0634765625
25.7890625,-173.7421875
27.302734375,-172.4609375
28.2919921875,-170.7021484375
28.6953125,-169.1025390625
28.4541015625,-168.13671875
27.552734375,-167.9482421875
26.1171875,-168.3564453125
24.5078125,-168.9853515625
23.2314453125,-169.4521484375
22.7099609375,-169.54296875
23.0029296875,-169.328125
23.7314453125,-169.1640625
24.2890625,-169.494140625
24.189453125,-170.5947265625
23.3349609375,-172.3564453125
22.0693359375,-174.2744140625
20.9765625,-175.6884765625
20.5478515625,-176.1611328125
20.87890625,-175.7529296875
21.5986328125,-175.005859375
22.0458984375,-174.615234375
21.6484375,-174.9990234375
20.2578125,-176.052734375
18.2568359375,-177.240234375
16.3896484375,-177.939453125
15.41015625,-177.865234375
15.7626953125,-177.208984375
17.3974609375,-176.4951171875
19.8134765625,-176.2392578125
22.302734375,-176.6689453125
24.2529296875,-177.625
25.3857421875,-178.6953125
25.802734375,-179.4501953125
25.8466796875,-179.6748046875
25.8603515625,-179.443359375
26.0009765625,-179.01953125
26.2021484375,-178.662109375
26.259765625,-178.4951171875
25.998046875,-178.5205078125
25.3935546875,-178.6767578125
24.607421875,-178.9169921875
23.93359375,-179.24609375
23.642578125,-179.7060546875
23.8486328125,-180.3388671875
24.4462890625,-181.1162109375
25.1962890625,-181.8984375
25.8662109375,-182.4814453125
26.3359375,-182.7216796875
26.5849609375,-182.6513671875
26.640625,-182.5205078125
26.521484375,-182.69140625
26.248046875,-183.416015625
25.8916015625,-184.6669921875
25.58203125,-186.123046875
25.5087890625,-187.3310546875
25.841796875,-187.9287109375
26.640625,-187.8154296875
27.7763671875,-187.169921875
28.939453125,-186.373046875
29.7333984375,-185.8623046875
29.814453125,-185.98046875
29.013671875,-186.8681640625
27.3720703125,-188.396484375
25.095703125,-190.17578125
22.5107421875,-191.662109375
20.0419921875,-192.390625
18.189453125,-192.224609375
17.4599609375,-191.4990234375
18.2099609375,-190.884765625
20.48828125,-191.0400390625
23.9609375,-192.205078125
27.966796875,-194.0107421875
31.6904296875,-195.6162109375
34.412109375,-196.09765625
35.69140625,-194.9248046875
35.4970703125,-192.2509765625
34.1484375,-188.904296875
32.205078125,-186.02734375
30.2392578125,-184.587890625
28.638671875,-184.970703125
27.4892578125,-186.861328125
26.5634765625,-189.447265625
25.4755859375,-191.8095703125
23.89453125,-193.3134765625
21.7470703125,-193.8193359375
19.2734375,-193.640625
16.9248046875,-193.3017578125
15.177734375,-193.2529296875
14.390625,-193.6650390625
14.7431640625,-194.427734375
16.2392578125,-195.2939453125
18.716796875,-196.0546875
21.84765625,-196.611328125
25.162109375,-196.9072265625
28.138671875,-196.84375
30.330078125,-196.2763671875
31.4794921875,-195.12890625
31.568359375,-193.5244140625
30.8017578125,-191.81640625
29.5390625,-190.4091796875
28.224609375,-189.5
27.27734375,-188.9052734375
26.95703125,-188.1474609375
27.2275390625,-186.7646484375
27.6650390625,-184.67578125
27.5458984375,-182.3251953125
26.119140625,-180.533203125
22.9921875,-180.0888671875
18.4404296875,-181.3515625
13.4169921875,-184.076171875
9.236328125,-187.5361328125
6.9931640625,-190.8779296875
7.064453125,-193.4990234375
8.939453125,-195.232421875
11.5078125,-196.3095703125
13.65234375,-197.1357421875
14.80078125,-198.04296875
15.1943359375,-199.146484375
15.6806640625,-200.3359375
17.1787109375,-201.3818359375
20.1064453125,-202.0869140625
24.0966796875,-202.3681640625
28.1728515625,-202.2763671875
31.259765625,-201.9375
32.712890625,-201.4716796875
32.591796875,-200.9580078125
31.5517578125,-200.388671875
30.46875,-199.6767578125
30.013671875,-198.6875
30.3974609375,-197.3056640625
31.359375,-195.576171875
32.361328125,-193.7646484375
32.8916015625,-192.3251953125
32.6884765625,-191.7080078125
31.83203125,-192.1201171875
30.64453125,-193.3447265625
29.478515625,-194.7939453125
28.5078125,-195.7998046875
27.6298828125,-195.9931640625
26.572265625,-195.533203125
25.150390625,-194.9833984375
23.4921875,-194.9423828125
22.0693359375,-195.6787109375
21.4697265625,-196.9599609375
22.09765625,-198.1767578125
23.9287109375,-198.6376953125
26.4892578125,-197.900390625
29.021484375,-195.9453125
30.7783203125,-193.1396484375
31.291015625,-190.0625
30.5087890625,-187.298828125
28.7822265625,-185.2724609375
26.69140625,-184.15234375
24.8310546875,-183.8310546875
23.57421875,-184.0234375
22.958984375,-184.447265625
22.7177734375,-185.001953125
22.4267578125,-185.8203125
21.732421875,-187.1591796875
20.5146484375,-189.1630859375
18.9560546875,-191.681640625
17.4736328125,-194.2265625
16.5400390625,-196.1513671875
16.4716796875,-196.9755859375
17.2734375,-196.68359375
18.6416015625,-195.7890625
20.095703125,-195.0810546875
21.1923828125,-195.1611328125
21.6845703125,-196.12109375
21.6005859375,-197.52734375
21.181640625,-198.7265625
20.7578125,-199.2431640625
20.591796875,-198.9951171875
20.7626953125,-198.27734375
21.1416015625,-197.5439453125
21.453125,-197.1533203125
21.4150390625,-197.248046875
20.875,-197.7880859375
19.8759765625,-198.671875
18.609375,-199.8193359375
17.318359375,-201.13671875
16.208984375,-202.4248046875
15.44140625,-203.35546875
15.1435546875,-203.560546875
15.4091796875,-202.8173828125
16.2431640625,-201.2294921875
17.5087890625,-199.27734375
18.9599609375,-197.681640625
20.3828125,-197.1171875
21.845703125,-197.92578125
23.921875,-199.9677734375
27.7412109375,-202.7744140625
34.7373046875,-205.9755859375
46.2060546875,-209.763671875
62.87109375,-215.0986328125
84.685546875,-223.4462890625
110.9130859375,-236.1708984375
140.4326171875,-253.8505859375
172.125,-275.8876953125
205.1357421875,-300.60546875
238.9111328125,-325.77734375
273.0107421875,-349.3583984375
306.9169921875,-370.0517578125
339.955078125,-387.4765625
371.359375,-401.95703125
400.404296875,-414.10546875
426.5029296875,-424.4873046875
449.248046875,-433.47265625
468.365234375,-441.2431640625
483.6689453125,-447.8974609375
495.056640625,-453.515625
502.6201171875,-458.1845703125
506.7158203125,-461.9482421875
508.0185546875,-464.7607421875
507.4541015625,-466.4814453125
506.0341796875,-466.96875
504.64453125,-466.2568359375
503.833984375,-464.6845703125
503.6982421875,-462.8720703125
503.9638671875,-461.498046875
504.23046875,-461.03125
504.2548828125,-461.5
504.1064453125,-462.4716796875
504.109375,-463.21875
504.6064453125,-463.0224609375
505.7119140625,-461.4951171875
507.1943359375,-458.80078125
508.5703125,-455.6494140625
509.3427734375,-453.0498046875
509.2578125,-451.8896484375
508.44140625,-452.4970703125
507.3408203125,-454.4462890625
506.5009765625,-456.720703125
506.3173828125,-458.1494140625
506.8994140625,-457.94921875
508.0693359375,-456.095703125
509.4794921875,-453.33203125
510.744140625,-450.7958984375
511.5654296875,-449.48046875
511.77734375,-449.8154296875
511.3603515625,-451.576171875
510.3974609375,-454.087890625
509.029296875,-456.5478515625
507.4560546875,-458.3154296875
505.939453125,-459.029296875
504.7666015625,-458.6123046875
504.1669921875,-457.1953125
504.18359375,-455.07421875
504.591796875,-452.6982421875
504.9560546875,-450.6572265625
504.806640625,-449.544921875
503.865234375,-449.7373046875
502.2109375,-451.18359375
500.2666015625,-453.39453125
498.654296875,-455.6142578125
497.9599609375,-457.1201171875
498.4912109375,-457.4765625
500.162109375,-456.642578125
502.5615234375,-454.9912109375
505.19921875,-453.2158203125
507.7587890625,-452.1279296875
510.1669921875,-452.38671875
512.4638671875,-454.2314453125
514.55859375,-457.361328125
516.11328125,-461.0166015625
516.6435546875,-464.2666015625
515.8251953125,-466.3408203125
513.787109375,-466.8876953125
511.2060546875,-466.076171875
509.0771484375,-464.494140625
508.283203125,-462.9375
509.197265625,-462.1298828125
511.5478515625,-462.43359375
514.603515625,-463.6953125
517.5517578125,-465.2958984375
519.828125,-466.4169921875
521.271484375,-466.4384765625
522.0634765625,-465.2392578125
522.54296875,-463.2470703125
523.0107421875,-461.177734375
523.5908203125,-459.6708984375
524.216796875,-458.9990234375
524.734375,-459.03125
525.025390625,-459.419921875
525.0498046875,-459.8525390625
524.8125,-460.19921875
524.2734375,-460.521484375
523.34375,-460.962890625
521.9638671875,-461.62109375
520.2138671875,-462.447265625
518.3447265625,-463.240234375
516.7060546875,-463.7451171875
515.60546875,-463.8193359375
515.1728515625,-463.5244140625
515.306640625,-463.0712890625
515.755859375,-462.662109375
516.259765625,-462.37890625
516.70703125,-462.173828125
517.1640625,-461.9765625
517.79296875,-461.7607421875
518.7119140625,-461.54296875
519.8916015625,-461.330078125
521.1650390625,-461.0986328125
522.3037109375,-460.8388671875
523.1142578125,-460.6201171875
523.466796875,-460.57421875
523.29296875,-460.8173828125
522.556640625,-461.3515625
521.259765625,-462.048828125
519.4599609375,-462.755859375
517.29296875,-463.4189453125
514.9384765625,-464.1435546875
512.55859375,-465.08984375
510.2578125,-466.2783203125
508.1181640625,-467.466796875
506.283203125,-468.2314453125
504.994140625,-468.2333984375
504.52734375,-467.4580078125
505.0322265625,-466.271484375
506.396484375,-465.2119140625
508.2578125,-464.685546875
510.1328125,-464.7685546875
511.6337890625,-465.1904296875
512.634765625,-465.5146484375
513.3095703125,-465.3759765625
513.9912109375,-464.7060546875
514.9697265625,-463.7939453125
516.3056640625,-463.15234375
517.7666015625,-463.2373046875
518.912109375,-464.181640625
519.3046875,-465.677734375
518.7421875,-467.09375
517.3623046875,-467.7587890625
515.623046875,-467.3193359375
514.1083984375,-465.958984375
513.2734375,-464.345703125
513.24609375,-463.2978515625
513.7822265625,-463.3466796875
514.4052734375,-464.4755859375
514.623046875,-466.0986328125
514.1474609375,-467.3271484375
512.9951171875,-467.3564453125
511.4716796875,-465.8125
510.0361328125,-462.9150390625
509.1298828125,-459.3916015625
509.029296875,-456.220703125
509.8037109375,-454.2841796875
511.3203125,-454.0791015625
513.28125,-455.5634765625
515.2548828125,-458.1767578125
516.7392578125,-461.0615234375
517.3017578125,-463.3779296875
516.71875,-464.6318359375
515.078125,-464.841796875
512.7802734375,-464.4765625
510.4169921875,-464.197265625
508.5595703125,-464.5478515625
507.5673828125,-465.7373046875
507.4609375,-467.572265625
507.955078125,-469.537109375
508.5947265625,-470.9638671875
508.970703125,-471.25390625
508.8935546875,-470.0986328125
508.5068359375,-467.630859375
508.2197265625,-464.4228515625
508.517578125,-461.3408203125
509.7021484375,-459.2666015625
511.7001953125,-458.7744140625
514.0419921875,-459.8876953125
516.0439453125,-462.029296875
517.091796875,-464.26171875
516.9248046875,-465.69921875
515.7265625,-465.900390625
514.00390625,-465.0146484375
512.341796875,-463.689453125
511.1416015625,-462.76953125
510.48828125,-462.9833984375
510.189453125,-464.6552734375
509.927734375,-467.560546875
509.4658203125,-470.96484375
508.798828125,-473.873046875
508.1904296875,-475.3935546875
508.0341796875,-475.0830078125
508.6337890625,-473.10546875
509.982421875,-470.1923828125
511.6962890625,-467.4033203125
513.14453125,-465.7841796875
513.7421875,-466.015625
513.2626953125,-468.16796875
511.9697265625,-471.62890625
510.4755859375,-475.2841796875
509.3798828125,-477.900390625
508.9267578125,-478.61328125
508.8896484375,-477.2958984375
508.7841796875,-474.6181640625
508.2138671875,-471.7578125
507.1650390625,-469.8623046875
506.0263671875,-469.5712890625
505.3330078125,-470.8125
505.404296875,-472.9384765625
506.1142578125,-475.072265625
506.9794921875,-476.4912109375
507.455078125,-476.8759765625
507.2685546875,-476.3544921875
506.55859375,-475.373046875
505.7783203125,-474.455078125
505.44140625,-473.9521484375
505.890625,-473.880859375
507.1884765625,-473.9521484375
509.1650390625,-473.763671875
511.521484375,-473.068359375
513.9189453125,-471.994140625
515.99609375,-471.015625
517.396484375,-470.7080078125
517.8837890625,-471.427734375
517.4560546875,-473.1044921875
516.4091796875,-475.2587890625
515.2314453125,-477.2294921875
514.3974609375,-478.5
514.154296875,-478.9365234375
514.4326171875,-478.8271484375
514.9453125,-478.673828125
515.3740234375,-478.865234375
515.541015625,-479.458984375
515.4609375,-480.2080078125
515.3134765625,-480.794921875
515.36328125,-481.083984375
515.857421875,-481.17578125
516.9296875,-481.28515625
518.546875,-481.525390625
520.5146484375,-481.78125
522.548828125,-481.75
524.3955078125,-481.1259765625
525.9150390625,-479.7841796875
527.0771484375,-477.8837890625
527.890625,-475.80078125
528.30078125,-473.9921875
528.1533203125,-472.857421875
527.2392578125,-472.6494140625
525.4091796875,-473.4130859375
522.6796875,-474.9541015625
519.3154296875,-476.865234375
515.798828125,-478.615234375
512.708984375,-479.732421875
510.4990234375,-480.0107421875
509.3310546875,-479.6357421875
509.013671875,-479.1220703125
509.1201171875,-479.0703125
509.234375,-479.8544921875
509.17578125,-481.408203125
509.078125,-483.23046875
509.2392578125,-484.6162109375
509.8544921875,-484.9775390625
510.810546875,-484.1044921875
511.6806640625,-482.2314453125
511.95703125,-479.904296875
511.345703125,-477.771484375
509.9453125,-476.375
508.224609375,-475.9609375
506.8515625,-476.375
506.4521484375,-477.0966796875
507.3759765625,-477.4609375
509.4248046875,-476.94921875
511.6953125,-475.396484375
512.662109375,-472.9462890625
510.5654296875,-469.82421875
503.951171875,-466.05078125
492.0810546875,-461.2841796875
475.033203125,-454.9130859375
453.4375,-446.3232421875
428.0498046875,-435.1748046875
399.3779296875,-421.5029296875
367.57421875,-405.6328125
332.6650390625,-388.03125
294.9111328125,-369.205078125
255.10546875,-349.6884765625
214.6142578125,-330.05859375
175.212890625,-310.98046875
138.8203125,-293.3076171875
107.1904296875,-278.1796875
81.6298828125,-266.9697265625
62.7529296875,-260.916015625
50.369140625,-260.5849609375
43.55859375,-265.3916015625
40.890625,-273.5634765625
40.685546875,-282.6015625
41.3232421875,-290.095703125
41.5185546875,-294.5517578125
40.576171875,-295.8359375
38.4580078125,-295.041015625
35.6513671875,-293.8505859375
32.8359375,-293.7421875
30.5224609375,-295.3876953125
28.8681640625,-298.4892578125
27.744140625,-302.0244140625
26.974609375,-304.7900390625
26.580078125,-305.9931640625
26.8310546875,-305.6787109375
28.05859375,-304.7197265625
30.37109375,-304.34375
33.4462890625,-305.40234375
36.5625,-307.8525390625
38.833984375,-310.7451171875
39.5576171875,-312.76171875
38.498046875,-312.912109375
35.9619140625,-311.0439453125
32.703125,-307.896484375
29.609375,-304.7265625
27.3662109375,-302.73046875
26.2236328125,-302.525390625
25.9404296875,-303.904296875
25.958984375,-305.9814453125
25.6748046875,-307.6142578125
24.7021484375,-307.927734375
23.0205078125,-306.6787109375
20.9375,-304.36328125
18.923828125,-302.04296875
17.3857421875,-300.890625
16.5234375,-301.66015625
16.2880859375,-304.2744140625
16.50390625,-307.79296875
16.9970703125,-310.7724609375
17.716796875,-311.8662109375
18.7568359375,-310.3857421875
20.3046875,-306.59765625
22.515625,-301.642578125
25.376953125,-297.0625
28.6435546875,-294.1318359375
31.880859375,-293.3154296875
34.5693359375,-294.130859375
36.212890625,-295.46484375
36.447265625,-296.1240234375
35.08203125,-295.337890625
32.1513671875,-293.0341796875
27.91796875,-289.7783203125
22.849609375,-286.4892578125
17.5498046875,-284.0634765625
12.6181640625,-283.0498046875
8.5,-283.47265625
5.3994140625,-284.8583984375
3.2880859375,-286.4619140625
2.0234375,-287.611328125
1.4853515625,-288.029296875
1.658203125,-287.9248046875
2.56640625,-287.8232421875
4.1474609375,-288.1904296875
6.1328125,-289.13671875
8.0830078125,-290.337890625
9.521484375,-291.228515625
10.12890625,-291.3154296875
9.8544921875,-290.451171875
8.9140625,-288.9443359375
7.673828125,-287.4716796875
6.4794921875,-286.7900390625
5.509765625,-287.3701171875
4.7265625,-289.1103515625
3.9189453125,-291.3115234375
2.8818359375,-292.9482421875
1.58203125,-293.1357421875
0.244140625,-291.5732421875
-0.7275390625,-288.73828125
-0.96484375,-285.71484375
-0.400390625,-283.6884765625
0.6337890625,-283.3720703125
1.513671875,-284.6484375
1.63671875,-286.640625
0.740234375,-288.1484375
-0.9404296875,-288.2314453125
-2.765625,-286.6494140625
-3.9716796875,-284
-4.03125,-281.4453125
-2.8984375,-280.14453125
-1.0576171875,-280.6826171875
0.712890625,-282.771484375
1.6982421875,-285.4033203125
1.5927734375,-287.357421875
0.6005859375,-287.796875
-0.716796875,-286.666015625
-1.767578125,-284.7001953125
-2.23828125,-283.029296875
-2.232421875,-282.60546875
-2.1572265625,-283.7119140625
-2.4521484375,-285.8427734375
-3.330078125,-287.9853515625
-4.6875,-289.1484375
-6.216796875,-288.8525390625
-7.599609375,-287.3525390625
-8.6396484375,-285.490234375
-9.2890625,-284.2412109375
-9.59375,-284.197265625
-9.6298828125,-285.259765625
-9.4677734375,-286.7412109375
-9.1611328125,-287.7646484375
-8.7412109375,-287.736328125
-8.2255859375,-286.626953125
-7.6142578125,-284.9716796875
-6.93359375,-283.6171875
-6.2724609375,-283.3466796875
-5.779296875,-284.521484375
-5.6318359375,-286.9306640625
-5.9580078125,-289.8828125
-6.76953125,-292.4697265625
-7.9365234375,-293.90625
-9.203125,-293.791015625
-10.2666015625,-292.2529296875
-10.8740234375,-289.8984375
-10.947265625,-287.58203125
-10.6162109375,-286.0439453125
-10.158203125,-285.625
-9.84375,-286.158203125
-9.771484375,-287.0849609375
-9.814453125,-287.7197265625
-9.705078125,-287.5302734375
-9.1962890625,-286.3720703125
-8.203125,-284.548828125
-6.853515625,-282.724609375
-5.3984375,-281.6474609375
-4.08984375,-281.845703125
-3.0810546875,-283.3623046875
-2.384765625,-285.724609375
-1.91796875,-288.140625
-1.5498046875,-289.8779296875
-1.150390625,-290.5966796875
-0.65625,-290.482421875
-0.12109375,-290.087890625
0.2705078125,-289.984375
0.296875,-290.4296875
-0.1669921875,-291.251953125
-1.0556640625,-292
-2.1474609375,-292.2451171875
-3.1669921875,-291.8134765625
-3.9130859375,-290.83203125
-4.333984375,-289.6259765625
-4.5,-288.537109375
-4.5263671875,-287.7626953125
-4.5087890625,-287.3056640625
-4.4912109375,-287.05078125
-4.4794921875,-286.943359375
-4.4609375,-287.0703125
-4.400390625,-287.5966796875
-4.2333984375,-288.55078125
-3.8935546875,-289.68359375
-3.3271484375,-290.4814453125
-2.5556640625,-290.3818359375
-1.693359375,-289.076171875
-0.9765625,-286.7470703125
-0.736328125,-284.091796875
-1.3154296875,-282.0537109375
-2.9013671875,-281.3828125
-5.3515625,-282.24609375
-8.1552734375,-284.162109375
-10.580078125,-286.2587890625
-11.9736328125,-287.7451171875
-12.041015625,-288.2646484375
-10.9267578125,-287.986328125
-9.09375,-287.3974609375
-7.080078125,-286.962890625
-5.28515625,-286.8818359375
-3.8896484375,-287.0576171875
-2.90234375,-287.251953125
-2.259765625,-287.2998046875
-1.88671875,-287.2060546875
-1.701171875,-287.080078125
-1.619140625,-287.0244140625
-1.5576171875,-287.0556640625
-1.4677734375,-287.166015625
-1.36328125,-287.3935546875
-1.287109375,-287.8310546875
-1.2841796875,-288.5712890625
-1.3701171875,-289.5869140625
-1.5595703125,-290.66796875
-1.8701171875,-291.4482421875
-2.298828125,-291.53125
-2.744140625,-290.720703125
-3.005859375,-289.2236328125
-2.8671875,-287.67578125
-2.2646484375,-286.9150390625
-1.3779296875,-287.548828125
-0.615234375,-289.5576171875
-0.453125,-292.1884765625
-1.203125,-294.2568359375
-2.8271484375,-294.7529296875
-4.9296875,-293.43359375
-6.9072265625,-291.060546875
-8.1982421875,-289.068359375
-8.4794921875,-288.818359375
-7.7568359375,-290.806640625
-6.3212890625,-294.33203125
-4.6298828125,-297.84375
-3.1435546875,-299.765625
-2.208984375,-299.3349609375
-2.0146484375,-296.9521484375
-2.56640625,-293.8798828125
-3.677734375,-291.49609375
-5.00390625,-290.5947265625
-6.1259765625,-291.123046875
-6.666015625,-292.376953125
-6.39453125,-293.48828125
-5.2978515625,-293.8603515625
-3.580078125,-293.36328125
-1.6259765625,-292.3125
0.0947265625,-291.287109375
1.16015625,-290.9306640625
1.33984375,-291.767578125
0.67578125,-294.0380859375
-0.517578125,-297.5888671875
-1.7744140625,-301.85546875
-2.6533203125,-306.009765625
-2.8955078125,-309.2138671875
-2.4853515625,-310.8828125
-1.6240234375,-310.880859375
-0.607421875,-309.583984375
0.2685546875,-307.775390625
0.80859375,-306.3759765625
0.9501953125,-306.0703125
0.7568359375,-307.01171875
0.3642578125,-308.8056640625
-0.0869140625,-310.70703125
-0.5126953125,-311.99609375
-0.91015625,-312.26953125
-1.3251953125,-311.5283203125
-1.767578125,-310.005859375
-2.169921875,-307.8740234375
-2.3837890625,-305.064453125
-2.2314453125,-301.2548828125
-1.5302734375,-295.8525390625
-0.091796875,-287.931640625
2.33203125,-276.294921875
6.0712890625,-259.75390625
11.4609375,-237.46875
18.65625,-209.0615234375
27.3798828125,-174.373046875
36.80078125,-133.0048828125
45.6552734375,-83.9755859375
52.599609375,-25.8798828125
56.681640625,42.189453125
57.7255859375,119.359375
56.51171875,202.09375
54.5556640625,284.486328125
53.5380859375,359.830078125
54.5634765625,422.6884765625
57.6357421875,470.4599609375
61.6728515625,503.7451171875
65.09375,525.4931640625
66.6669921875,539.4970703125
66.126953125,548.9619140625
64.21875,555.6611328125
62.1669921875,559.82421875
60.912109375,560.611328125
60.583984375,556.8525390625
60.4951171875,547.740234375
59.6240234375,533.2490234375
57.2333984375,514.18359375
53.244140625,491.876953125
48.2490234375,467.662109375
43.1845703125,442.4287109375
38.8916015625,416.4423828125
35.7802734375,389.5458984375
33.71875,361.517578125
32.1865234375,332.412109375
30.62890625,302.65234375
28.80078125,272.939453125
26.931640625,244.03125
25.5478515625,216.4638671875
25.0791015625,190.3681640625
25.5048828125,165.4755859375
26.302734375,141.345703125
26.775390625,117.7265625
26.5146484375,94.76953125
25.6728515625,73.0146484375
24.8076171875,53.0703125
24.4482421875,35.2431640625
24.708984375,19.2783203125
25.1787109375,4.4140625
25.17578125,-10.2919921875
24.158203125,-25.521484375
22.056640625,-41.3935546875
19.3359375,-57.4091796875
16.744140625,-72.634765625
14.955078125,-86.0546875
14.2578125,-96.9697265625
14.5078125,-105.306640625
15.2333984375,-111.697265625
15.8740234375,-117.2802734375
15.9716796875,-123.244140625
15.306640625,-130.3310546875
13.9306640625,-138.564453125
12.138671875,-147.330078125
10.3603515625,-155.76171875
9.009765625,-163.2021484375
8.341796875,-169.4814453125
8.3740234375,-174.8916015625
8.919921875,-179.8935546875
9.6904296875,-184.822265625
10.3994140625,-189.724609375
10.8408203125,-194.47265625
10.9072265625,-198.9599609375
10.564453125,-203.2802734375
9.85546875,-207.6640625
8.9150390625,-212.24609375
7.958984375,-216.8310546875
7.2197265625,-220.90625
6.8310546875,-223.9443359375
6.75,-225.814453125
6.7529296875,-227
6.5439453125,-228.4072265625
5.9208984375,-230.8583984375
4.9091796875,-234.537109375
3.798828125,-238.7890625
3.03515625,-242.455078125
3.0244140625,-244.5439453125
3.927734375,-244.8525390625
5.5166015625,-244.1328125
7.189453125,-243.705078125
8.16796875,-244.7509765625
7.8525390625,-247.6708984375
6.142578125,-251.9072265625
3.548828125,-256.3193359375
1.0009765625,-259.818359375
-0.5791015625,-261.9169921875
-0.6806640625,-262.8603515625
0.6064453125,-263.3837890625
2.728515625,-264.2529296875
4.974609375,-265.896484375
6.7939453125,-268.2587890625
7.9658203125,-270.90234375
8.5791015625,-273.2470703125
8.8759765625,-274.8359375
9.06640625,-275.5322265625
9.2548828125,-275.6044921875
9.490234375,-275.658203125
9.8544921875,-276.4375
10.4970703125,-278.5068359375
11.5458984375,-282.0009765625
12.9580078125,-286.4990234375
14.435546875,-291.18359375
15.451171875,-295.1875
15.4677734375,-298.01171875
14.234375,-299.7255859375
11.9833984375,-300.8564453125
9.3916015625,-302.015625
7.2802734375,-303.515625
6.1953125,-305.2197265625
6.142578125,-306.7236328125
6.591796875,-307.6923828125
6.8017578125,-308.1279296875
6.255859375,-308.365234375
4.94140625,-308.818359375
3.310546875,-309.685546875
1.9580078125,-310.818359375
1.259765625,-311.84765625
1.201171875,-312.4609375
1.4794921875,-312.6279296875
1.74609375,-312.572265625
1.8330078125,-312.580078125
1.8466796875,-312.8056640625
2.06640625,-313.2509765625
2.744140625,-313.8818359375
3.912109375,-314.7451171875
5.294921875,-315.9638671875
6.375,-317.623046875
6.5703125,-319.5908203125
5.501953125,-321.4599609375
3.2001953125,-322.6494140625
0.205078125,-322.66015625
-2.59375,-321.3232421875
-4.2412109375,-318.92578125
-4.0654296875,-316.150390625
-1.94921875,-313.8271484375
1.6181640625,-312.6015625
5.6904296875,-312.689453125
9.201171875,-313.796875
11.3310546875,-315.291015625
11.78125,-316.49609375
10.8408203125,-317.01953125
9.2451171875,-316.9541015625
7.8759765625,-316.8271484375
7.4326171875,-317.3037109375
8.20703125,-318.779296875
10.0390625,-321.1162109375
12.45703125,-323.689453125
14.8935546875,-325.703125
16.8720703125,-326.595703125
18.09765625,-326.330078125
18.4716796875,-325.4228515625
18.0419921875,-324.69921875
16.9619140625,-324.9033203125
15.435546875,-326.3623046875
13.669921875,-328.8515625
11.8349609375,-331.72265625
10.0615234375,-334.189453125
8.44921875,-335.6689453125
7.0810546875,-335.9873046875
6.02734375,-335.435546875
5.33203125,-334.630859375
5.00390625,-334.25390625
5.005859375,-334.7626953125
5.248046875,-336.1728515625
5.6201171875,-338.025390625
6.068359375,-339.5849609375
6.6591796875,-340.232421875
7.5771484375,-339.8076171875
9.0029296875,-338.7333984375
10.9375,-337.80078125
13.064453125,-337.7587890625
14.798828125,-338.9150390625
15.5205078125,-340.943359375
14.90625,-343.052734375
13.158203125,-344.4208984375
11.013671875,-344.677734375
9.4619140625,-344.09765625
9.3291015625,-343.380859375
10.9033203125,-343.201171875
13.7783203125,-343.8154296875
17.0205078125,-344.962890625
19.5791015625,-346.0595703125
20.7099609375,-346.5634765625
20.20703125,-346.2998046875
18.3505859375,-345.5732421875
15.6806640625,-344.9921875
12.7841796875,-345.0986328125
10.1689453125,-346.0146484375
8.2265625,-347.33984375
7.205078125,-348.373046875
7.1220703125,-348.5068359375
7.7158203125,-347.595703125
8.505859375,-346.060546875
8.982421875,-344.7197265625
8.8427734375,-344.396484375
8.12109375,-345.529296875
7.1123046875,-347.9365234375
6.1630859375,-350.8974609375
5.4697265625,-353.4921875
5.0390625,-354.9931640625
4.7880859375,-355.1474609375
4.701171875,-354.2138671875
4.861328125,-352.8232421875
5.3525390625,-351.7197265625
6.1142578125,-351.474609375
6.904296875,-352.2412109375
7.4091796875,-353.677734375
7.4111328125,-355.0908203125
6.927734375,-355.775390625
6.193359375,-355.3974609375
5.5126953125,-354.1787109375
5.087890625,-352.7919921875
4.916015625,-351.9873046875
4.830078125,-352.17578125
4.658203125,-353.216796875
4.3505859375,-354.4951171875
4.0400390625,-355.2841796875
3.9775390625,-355.123046875
4.384765625,-354.05078125
5.3076171875,-352.5498046875
6.5732421875,-351.2802734375
7.869140625,-350.7763671875
8.9150390625,-351.228515625
9.59375,-352.427734375
10.005859375,-353.84375
10.396484375,-354.8388671875
11.013671875,-354.93359375
11.9287109375,-354.052734375
12.9462890625,-352.6015625
13.671875,-351.29296875
13.7265625,-350.802734375
12.9775390625,-351.421875
11.6162109375,-352.91796875
10.015625,-354.681640625
8.4931640625,-356.095703125
7.1494140625,-356.84765625
5.908203125,-357.033203125
4.693359375,-356.978515625
3.6142578125,-356.9755859375
2.953125,-357.0849609375
3.0234375,-357.119140625
3.9423828125,-356.7958984375
5.5322265625,-355.9697265625
7.359375,-354.775390625
8.8955078125,-353.583984375
9.7001953125,-352.80078125
9.5302734375,-352.638671875
8.388671875,-353.017578125
6.5146484375,-353.6416015625
4.33984375,-354.1630859375
2.4404296875,-354.3603515625
1.3740234375,-354.244140625
1.4833984375,-354.009765625
2.7197265625,-353.8671875
4.6494140625,-353.857421875
6.666015625,-353.7958984375
8.259765625,-353.439453125
9.1953125,-352.7265625
9.509765625,-351.9013671875
9.3876953125,-351.4189453125
9.017578125,-351.6875
8.5185546875,-352.8369140625
7.94140625,-354.615234375
7.3212890625,-356.4658203125
6.732421875,-357.7431640625
6.2705078125,-357.98046875
6.001953125,-357.111328125
5.931640625,-355.505859375
6.0107421875,-353.837890625
6.1943359375,-352.8115234375
6.4697265625,-352.8779296875
6.830078125,-354.0751953125
7.2236328125,-356.025390625
7.58984375,-358.056640625
7.9404296875,-359.4375
8.3984375,-359.6455078125
9.1015625,-358.609375
10.0615234375,-356.7705078125
11.0966796875,-354.9443359375
11.888671875,-353.9990234375
12.1552734375,-354.509765625
11.8271484375,-356.5078125
11.12109375,-359.4208984375
10.46875,-362.279296875
10.3095703125,-364.095703125
10.890625,-364.26171875
12.162109375,-362.771484375
13.8203125,-360.2021484375
15.4296875,-357.521484375
16.5712890625,-355.7626953125
16.9619140625,-355.7021484375
16.5166015625,-357.5107421875
15.376953125,-360.6083984375
13.8681640625,-363.80859375
12.3916015625,-365.7978515625
11.3251953125,-365.7548828125
10.9208984375,-363.7861328125
11.275390625,-360.890625
12.3369140625,-358.427734375
13.92578125,-357.427734375
15.7265625,-358.078125
17.3056640625,-359.7041015625
18.1708984375,-361.1640625
17.9453125,-361.458984375
16.5400390625,-360.177734375
14.2861328125,-357.6455078125
11.8896484375,-354.7001953125
10.1806640625,-352.3212890625
9.759765625,-351.2705078125
10.7041015625,-351.8720703125
12.486328125,-353.9677734375
14.189453125,-356.998046875
14.9287109375,-360.216796875
14.2783203125,-362.962890625
12.4658203125,-364.8818359375
10.234375,-365.9677734375
8.46484375,-366.4541015625
7.751953125,-366.623046875
8.171875,-366.646484375
9.302734375,-366.5556640625
10.498046875,-366.35546875
11.2392578125,-366.1513671875
11.37109375,-366.1806640625
11.1279296875,-366.67578125
10.9365234375,-367.6875
11.1064453125,-369.0048828125
11.6171875,-370.216796875
12.1416015625,-370.900390625
12.2705078125,-370.771484375
11.802734375,-369.8095703125
10.8779296875,-368.28125
9.9130859375,-366.6650390625
9.3681640625,-365.4716796875
9.515625,-365.021484375
10.326171875,-365.291015625
11.5283203125,-365.9404296875
12.7666015625,-366.482421875
13.7822265625,-366.513671875
14.4580078125,-365.91796875
14.779296875,-364.9208984375
14.724609375,-363.9873046875
14.2275390625,-363.5927734375
13.1865234375,-363.9482421875
11.53515625,-364.880859375
9.3095703125,-365.931640625
6.701171875,-366.583984375
4.087890625,-366.53515625
1.9580078125,-365.826171875
0.767578125,-364.833984375
0.75390625,-364.1064453125
1.8369140625,-364.0947265625
3.646484375,-364.9150390625
5.689453125,-366.2880859375
7.54296875,-367.728515625
8.9931640625,-368.85546875
10.03515625,-369.5986328125
10.7939453125,-370.1826171875
11.388671875,-370.921875
11.8505859375,-371.9892578125
12.1015625,-373.263671875
12.0126953125,-374.369140625
11.5087890625,-374.84375
10.6640625,-374.39453125
9.728515625,-373.1005859375
9.0751953125,-371.412109375
9.0380859375,-369.9541015625
9.7529296875,-369.2080078125
11.048828125,-369.287109375
12.50390625,-369.9013671875
13.6220703125,-370.5478515625
14.0537109375,-370.787109375
13.744140625,-370.4912109375
12.939453125,-369.87109375
12.0419921875,-369.359375
11.40234375,-369.33203125
11.1689453125,-369.873046875
11.2490234375,-370.6923828125
11.4013671875,-371.306640625
11.3857421875,-371.3525390625
11.095703125,-370.857421875
10.6025390625,-370.220703125
10.11328125,-369.97265625
9.8701171875,-370.416015625
10.0322265625,-371.4306640625
10.6005859375,-372.5078125
11.4150390625,-373.05078125
12.208984375,-372.748046875
12.6865234375,-371.7861328125
12.626953125,-370.755859375
11.9765625,-370.2939453125
10.9189453125,-370.693359375
9.857421875,-371.689453125
9.3017578125,-372.6123046875
9.658203125,-372.7333984375
11.015625,-371.6806640625
13.0419921875,-369.685546875
15.0703125,-367.5009765625
16.3642578125,-366.0537109375
16.4326171875,-365.9765625
15.2109375,-367.2841796875
13.0634765625,-369.337890625
10.6064453125,-371.1640625
8.4189453125,-371.9228515625
6.8095703125,-371.2978515625
5.73828125,-369.625
4.91015625,-367.7001953125
4,-366.4033203125
2.8310546875,-366.314453125
1.4716796875,-367.4521484375
0.17578125,-369.2890625
-0.7421875,-371.005859375
-1.046875,-371.8935546875
-0.666015625,-371.6953125
0.2978515625,-370.73828125
1.61328125,-369.7373046875
3.009765625,-369.427734375
4.2314453125,-370.1787109375
5.107421875,-371.8134765625
5.5888671875,-373.7041015625
5.7578125,-375.0947265625
5.76953125,-375.466796875
5.7646484375,-374.7763671875
5.8310546875,-373.453125
6.03125,-372.1650390625
6.439453125,-371.51171875
7.1357421875,-371.7841796875
8.1298828125,-372.9052734375
9.298828125,-374.4990234375
10.375,-376.0712890625
11.013671875,-377.171875
10.962890625,-377.5322265625
10.2216796875,-377.119140625
9.0771484375,-376.130859375
7.9794921875,-374.9248046875
7.310546875,-373.8837890625
7.177734375,-373.283203125
7.37890625,-373.1953125
7.5341796875,-373.5068359375
7.2783203125,-374.0380859375
6.4638671875,-374.7001953125
5.2470703125,-375.5576171875
4.05078125,-376.759765625
3.3876953125,-378.3720703125
3.625,-380.2265625
4.7861328125,-381.90625
6.5283203125,-382.904296875
8.2685546875,-382.875
9.40625,-381.8603515625
9.5751953125,-380.3203125
8.7958984375,-378.9638671875
7.4853515625,-378.4248046875
6.298828125,-378.953125
5.8525390625,-380.2822265625
6.453125,-381.775390625
7.953125,-382.7548828125
9.8115234375,-382.873046875
11.291015625,-382.2890625
11.7802734375,-381.533203125
11.0615234375,-381.1787109375
9.419921875,-381.5
7.5185546875,-382.3056640625
6.123046875,-383.095703125
5.75390625,-383.3701171875
6.4853515625,-382.953125
7.943359375,-382.0810546875
9.4931640625,-381.23828125
10.5185546875,-380.8447265625
10.6611328125,-380.9697265625
9.9248046875,-381.296875
8.65234375,-381.3623046875
7.3544921875,-380.9423828125
6.525390625,-380.27734375
6.47265625,-379.9462890625
7.2236328125,-380.453125
8.521484375,-381.865234375
9.8955078125,-383.7216796875
10.833984375,-385.3115234375
10.9658203125,-386.1396484375
10.2041015625,-386.203125
8.76171875,-385.9462890625
7.060546875,-385.90625
5.59765625,-386.3369140625
4.78125,-387.0439453125
4.7919921875,-387.560546875
5.5283203125,-387.482421875
6.6279296875,-386.7255859375
7.6064453125,-385.5458984375
8.1484375,-384.3056640625
8.46875,-383.107421875
9.615234375,-381.48828125
13.4560546875,-378.3349609375
22.2578125,-372.091796875
37.9814453125,-361.296875
61.5986328125,-345.2080078125
92.720703125,-324.24609375
129.669921875,-300.0380859375
169.970703125,-274.98828125
210.951171875,-251.5947265625
250.2626953125,-231.748046875
286.11328125,-216.298828125
317.2265625,-205.04296875
342.7119140625,-197.0751953125
361.994140625,-191.396484375
374.921875,-187.4599609375
381.923828125,-185.369140625
384.095703125,-185.6513671875
383.0986328125,-188.7041015625
380.8564453125,-194.2626953125
379.0791015625,-201.1943359375
378.8095703125,-207.7958984375
380.197265625,-212.4658203125
382.62109375,-214.4130859375
385.0751953125,-213.9697265625
386.6513671875,-212.3408203125
386.8525390625,-210.9443359375
385.69921875,-210.73046875
383.5908203125,-211.822265625
381.072265625,-213.6279296875
378.59375,-215.275390625
376.4091796875,-216.1123046875
374.6181640625,-216.01171875
373.296875,-215.390625
372.6083984375,-214.9677734375
372.759765625,-215.3818359375
373.8486328125,-216.84375
375.724609375,-218.9912109375
377.97265625,-221.05078125
380.064453125,-222.1806640625
381.552734375,-221.8603515625
382.2353515625,-220.0986328125
382.16015625,-217.4287109375
381.5361328125,-214.689453125
380.587890625,-212.673828125
379.470703125,-211.828125
378.283203125,-212.0849609375
377.1259765625,-212.9482421875
376.12890625,-213.7734375
375.4453125,-214.0517578125
375.1826171875,-213.6044921875
375.3505859375,-212.5771484375
375.8623046875,-211.3330078125
376.6005859375,-210.2900390625
377.5107421875,-209.7841796875
378.6650390625,-209.9462890625
380.2265625,-210.67578125
382.34765625,-211.6689453125
385.0126953125,-212.548828125
387.9560546875,-213.0322265625
390.6787109375,-213.052734375
392.6298828125,-212.7841796875
393.4150390625,-212.513671875
392.93359375,-212.4853515625
391.3798828125,-212.74609375
389.1259765625,-213.12890625
386.5771484375,-213.37890625
384.0888671875,-213.3330078125
381.9560546875,-213.0205078125
380.4267578125,-212.6025390625
379.6806640625,-212.26171875
379.76953125,-212.0908203125
380.5771484375,-212.1005859375
381.8173828125,-212.259765625
383.1083984375,-212.54296875
384.078125,-212.939453125
384.478515625,-213.427734375
384.2421875,-213.955078125
383.4931640625,-214.431640625
382.478515625,-214.765625
381.478515625,-214.9091796875
380.716796875,-214.900390625
380.3173828125,-214.8291015625
380.2998046875,-214.7939453125
380.623046875,-214.8544921875
381.201171875,-215.02734375
381.919921875,-215.310546875
382.650390625,-215.7138671875
383.279296875,-216.2861328125
383.7177734375,-217.0732421875
383.9306640625,-218.0517578125
383.931640625,-219.0849609375
383.765625,-219.9580078125
383.4892578125,-220.4375
383.1416015625,-220.361328125
382.7841796875,-219.677734375
382.5361328125,-218.5078125
382.59375,-217.1396484375
383.1806640625,-215.982421875
384.4453125,-215.4150390625
386.33203125,-215.62109375
388.51953125,-216.4775390625
390.498046875,-217.615234375
391.7421875,-218.5712890625
391.9638671875,-218.990234375
391.2763671875,-218.7568359375
390.1943359375,-218.0439453125
389.4267578125,-217.2626953125
389.529296875,-216.9248046875
390.6103515625,-217.4306640625
392.2890625,-218.8671875
393.890625,-220.9501953125
394.7734375,-223.1162109375
394.6083984375,-224.7373046875
393.4833984375,-225.408203125
391.833984375,-225.12890625
390.2236328125,-224.2919921875
389.125,-223.4638671875
388.7626953125,-223.083984375
389.1015625,-223.265625
389.8798828125,-223.7626953125
390.68359375,-224.0791015625
391.0556640625,-223.6875
390.638671875,-222.2802734375
389.333984375,-219.96484375
387.3798828125,-217.2294921875
385.279296875,-214.75390625
383.642578125,-213.0810546875
382.958984375,-212.3857421875
383.4404296875,-212.4326171875
384.9423828125,-212.7216796875
387.0517578125,-212.7783203125
389.263671875,-212.412109375
391.1611328125,-211.82421875
392.4990234375,-211.486328125
393.1943359375,-211.8701171875
393.294921875,-213.1630859375
392.9365234375,-215.134765625
392.322265625,-217.2197265625
391.671875,-218.767578125
391.1484375,-219.3232421875
390.76953125,-218.8330078125
390.3623046875,-217.6767578125
389.6015625,-216.5166015625
388.1796875,-216.021484375
385.9873046875,-216.5927734375
383.2412109375,-218.2119140625
380.43359375,-220.44140625
378.13671875,-222.552734375
376.767578125,-223.7607421875
376.4013671875,-223.4794921875
376.7880859375,-221.5927734375
377.53125,-218.5947265625
378.3193359375,-215.4697265625
379.05859375,-213.3125
379.841796875,-212.8359375
380.8427734375,-214.0361328125
382.18359375,-216.1767578125
383.880859375,-218.12890625
385.865234375,-218.92578125
388.0029296875,-218.263671875
390.1162109375,-216.634765625
391.9765625,-215.0244140625
393.32421875,-214.310546875
393.9326171875,-214.7744140625
393.69921875,-215.9951171875
392.7109375,-217.1357421875
391.1904296875,-217.4462890625
389.361328125,-216.68359375
387.3271484375,-215.26171875
385.056640625,-214.068359375
382.505859375,-214.0419921875
379.7470703125,-215.70703125
377.0625,-218.892578125
374.8701171875,-222.7578125
373.5537109375,-226.115234375
373.27734375,-227.9248046875
373.892578125,-227.716796875
375.0126953125,-225.8115234375
376.1875,-223.1533203125
377.11328125,-220.8623046875
377.779296875,-219.7275390625
378.4697265625,-219.8837890625
379.6484375,-220.8330078125
381.7724609375,-221.7626953125
385.08984375,-221.998046875
389.4814453125,-221.3515625
394.384765625,-220.203125
398.896484375,-219.279296875
402.0234375,-219.267578125
403.013671875,-220.466796875
401.66796875,-222.6416015625
398.4228515625,-225.16015625
394.21875,-227.33984375
390.14453125,-228.7841796875
387.046875,-229.5244140625
385.263671875,-229.8701171875
384.5927734375,-230.1279296875
384.451171875,-230.4140625
384.1357421875,-230.6396484375
383.087890625,-230.6455078125
381.1044921875,-230.3662109375
378.451171875,-229.9150390625
375.7978515625,-229.5380859375
373.9853515625,-229.4453125
373.6650390625,-229.6337890625
374.9931640625,-229.890625
377.5185546875,-229.9404296875
380.3994140625,-229.6630859375
382.7978515625,-229.2294921875
384.26953125,-229.064453125
384.90625,-229.6650390625
385.2236328125,-231.3369140625
385.8193359375,-233.9970703125
387.052734375,-237.064453125
388.8779296875,-239.6201171875
390.900390625,-240.7724609375
392.591796875,-240.1328125
393.5029296875,-238.119140625
393.404296875,-235.8681640625
392.3505859375,-234.7197265625
390.638671875,-235.537109375
388.6884765625,-238.2099609375
386.8671875,-241.66015625
385.337890625,-244.3759765625
384.041015625,-245.20703125
382.80078125,-243.9931640625
381.458984375,-241.65625
379.984375,-239.6728515625
378.4833984375,-239.2646484375
377.16015625,-240.732421875
376.220703125,-243.33203125
375.8037109375,-245.69140625
375.9423828125,-246.54296875
376.6279296875,-245.375
377.8408203125,-242.662109375
379.5615234375,-239.6025390625
381.720703125,-237.49609375
384.146484375,-237.1220703125
386.548828125,-238.44921875
388.5478515625,-240.7763671875
389.7451171875,-243.1748046875
389.849609375,-244.9326171875
388.837890625,-245.7880859375
387.01171875,-245.9091796875
384.9091796875,-245.705078125
383.0341796875,-245.5859375
381.591796875,-245.8154296875
380.4365234375,-246.46875
379.224609375,-247.4716796875
377.716796875,-248.646484375
376.0185546875,-249.7646484375
374.58984375,-250.6201171875
374.01171875,-251.1015625
374.64453125,-251.2578125
376.396484375,-251.2734375
378.734375,-251.4052734375
380.919921875,-251.86328125
382.3115234375,-252.70703125
382.5947265625,-253.841796875
381.865234375,-255.064453125
380.53515625,-256.2060546875
379.1533203125,-257.1982421875
378.203125,-258.0791015625
377.9189453125,-258.8876953125
378.2041015625,-259.58984375
378.70703125,-260.080078125
379.0166015625,-260.287109375
378.876953125,-260.2841796875
378.2763671875,-260.3349609375
377.4150390625,-260.802734375
376.53515625,-261.9541015625
375.8037109375,-263.7236328125
375.2158203125,-265.666015625
374.484375,-267.2001953125
372.8095703125,-268.14453125
368.6787109375,-269.1884765625
360.0830078125,-271.921875
345.2109375,-278.3125
323.3056640625,-289.896484375
295.1884765625,-307.119140625
263.12890625,-329.0947265625
230.0859375,-353.9169921875
198.6064453125,-379.3046875
169.9453125,-403.2529296875
143.9091796875,-424.42578125
119.4912109375,-442.2138671875
95.859375,-456.615234375
73.07421875,-468.09765625
52.177734375,-477.4482421875
34.73046875,-485.55078125
22.091796875,-493.0546875
14.8115234375,-500.12109375
12.3515625,-506.419921875
13.236328125,-511.3544921875
15.58203125,-514.44140625
17.7763671875,-515.5556640625
18.9833984375,-515.013671875
19.22265625,-513.498046875
19.0615234375,-511.8798828125
19.123046875,-510.9833984375
19.7255859375,-511.345703125
20.76953125,-513.015625
21.8505859375,-515.51171875
22.4951171875,-517.9462890625
22.44140625,-519.3193359375
21.771484375,-518.9462890625
20.876953125,-516.8134765625
20.2265625,-513.6943359375
20.107421875,-510.8740234375
20.47265625,-509.607421875
20.986328125,-510.5537109375
21.2255859375,-513.462890625
20.9599609375,-517.2705078125
20.3056640625,-520.5380859375
19.6904296875,-522.0712890625
19.5888671875,-521.4345703125
20.189453125,-519.1181640625
21.2138671875,-516.2431640625
22,-513.9873046875
21.8388671875,-512.986328125
20.3876953125,-513.0986328125
17.87890625,-513.6103515625
15.01953125,-513.744140625
12.6474609375,-513.134765625
11.2958984375,-511.978515625
10.91796875,-510.865234375
10.8427734375,-510.4453125
10.0048828125,-511.212890625
7.4248046875,-513.427734375
2.7353515625,-517.103515625
-3.5068359375,-521.9384765625
-9.916015625,-527.2861328125
-14.8232421875,-532.216796875
-17.029296875,-535.8056640625
-16.3837890625,-537.5400390625
-13.857421875,-537.587890625
-11.0771484375,-536.7451171875
-9.52734375,-536.015625
-9.9013671875,-536.11328125
-11.91015625,-537.1005859375
-14.6162109375,-538.4404296875
-17.0517578125,-539.37890625
-18.73046875,-539.4287109375
-19.76171875,-538.6611328125
-20.5966796875,-537.6298828125
-21.6279296875,-537.01171875
-22.9296875,-537.2041015625
-24.2509765625,-538.0703125
-25.201171875,-538.998046875
-25.4501953125,-539.2421875
-24.8720703125,-538.3837890625
-23.5849609375,-536.6611328125
-21.916015625,-534.921875
-20.283203125,-534.1640625
-19.0673828125,-534.94140625
-18.4521484375,-536.9638671875
-18.3642578125,-539.181640625
-18.498046875,-540.271484375
-18.4560546875,-539.31640625
-17.90234375,-536.2744140625
-16.6806640625,-532.0712890625
-14.8515625,-528.1796875
-12.65625,-525.958984375
-10.462890625,-526.0185546875
-8.716796875,-528.0068359375
-7.8701171875,-530.8818359375
-8.2587890625,-533.4951171875
-9.9365234375,-535.142578125
-12.560546875,-535.7900390625
-15.462890625,-535.9189453125
-17.93359375,-536.0888671875
-19.5283203125,-536.537109375
-20.2236328125,-537.0498046875
-20.3291015625,-537.1572265625
-20.2392578125,-536.5234375
-20.2412109375,-535.2109375
-20.455078125,-533.6875
-20.9189453125,-532.5791015625
-21.6650390625,-532.310546875
-22.72265625,-532.8974609375
-24.048828125,-533.9501953125
-25.4794921875,-534.8828125
-26.75390625,-535.173828125
-27.6337890625,-534.576171875
-27.9833984375,-533.224609375
-27.7919921875,-531.5849609375
-27.13671875,-530.275390625
-26.1181640625,-529.7822265625
-24.8408203125,-530.2119140625
-23.396484375,-531.20703125
-21.876953125,-532.1474609375
-20.3740234375,-532.5
-18.9716796875,-532.1513671875
-17.751953125,-531.48828125
-16.796875,-531.212890625
-16.177734375,-531.947265625
-15.9375,-533.8505859375
-16.0634765625,-536.4609375
-16.4521484375,-538.8583984375
-16.9287109375,-540.09765625
-17.298828125,-539.6494140625
-17.408203125,-537.6982421875
-17.19140625,-535.103515625
-16.7041015625,-533.05078125
-16.1005859375,-532.517578125
-15.5732421875,-533.794921875
-15.2353515625,-536.3515625
-15.07421875,-539.12109375
-14.9921875,-541.03125
-14.9501953125,-541.5283203125
-15.0712890625,-540.779296875
-15.607421875,-539.521484375
-16.751953125,-538.6435546875
-18.4326171875,-538.7197265625
-20.224609375,-539.724609375
-21.4892578125,-541.0634765625
-21.666015625,-541.9228515625
-20.6064453125,-541.7353515625
-18.7138671875,-540.5458984375
-16.837890625,-539.0390625
-15.916015625,-538.171875
-16.576171875,-538.6240234375
-18.8427734375,-540.361328125
-22.1015625,-542.623046875
-25.3466796875,-544.3388671875
-27.5791015625,-544.744140625
-28.2001953125,-543.826171875
-27.22265625,-542.3447265625
-25.2197265625,-541.404296875
-23.0615234375,-541.8310546875
-21.5595703125,-543.7255859375
-21.1865234375,-546.4306640625
-21.953125,-548.888671875
-23.4833984375,-550.193359375
-25.2294921875,-549.99609375
-26.6845703125,-548.6318359375
-27.572265625,-546.88671875
-27.9189453125,-545.5478515625
-27.9755859375,-545.00390625
-28.056640625,-545.1220703125
-28.314453125,-545.44140625
-28.6337890625,-545.5390625
-28.658203125,-545.2822265625
-27.96875,-544.8662109375
-26.337890625,-544.666015625
-23.90625,-545.005859375
-21.1728515625,-545.9638671875
-18.8291015625,-547.318359375
-17.4638671875,-548.64453125
-17.3173828125,-549.5283203125
-18.1708984375,-549.7548828125
-19.474609375,-549.3955078125
-20.6240234375,-548.7548828125
-21.244140625,-548.255859375
-21.3173828125,-548.2490234375
-21.11328125,-548.8837890625
-20.9931640625,-550.0224609375
-21.185546875,-551.2802734375
-21.66015625,-552.1806640625
-22.1552734375,-552.3935546875
-22.353515625,-551.9033203125
-22.0732421875,-551.0341796875
-21.3642578125,-550.279296875
-20.4677734375,-550.03515625
-19.6767578125,-550.388671875
-19.1875,-551.0537109375
-19.0302734375,-551.5234375
-19.0732421875,-551.3662109375
-19.103515625,-550.5166015625
-18.927734375,-549.337890625
-18.4677734375,-548.423828125
-17.8115234375,-548.2646484375
-17.2138671875,-549.021484375
-16.98046875,-550.466796875
-17.2998046875,-552.1162109375
-18.1123046875,-553.41796875
-19.111328125,-553.939453125
-19.8759765625,-553.494140625
-20.0849609375,-552.21484375
-19.7099609375,-550.52734375
-19.0576171875,-549.0048828125
-18.6318359375,-548.1669921875
-18.876953125,-548.2841796875
-19.9306640625,-549.255859375
-21.568359375,-550.609375
-23.31640625,-551.646484375
-24.7041015625,-551.73046875
-25.4560546875,-550.583984375
-25.6005859375,-548.4912109375
-25.421875,-546.23046875
-25.2861328125,-544.7451171875
-25.4453125,-544.712890625
-25.927734375,-546.2275390625
-26.58984375,-548.740234375
-27.2548828125,-551.27734375
-27.8291015625,-552.89453125
-28.3056640625,-553.13671875
-28.673828125,-552.2841796875
-28.818359375,-551.1865234375
-28.541015625,-550.7939453125
-27.7255859375,-551.6318359375
-26.46875,-553.5810546875
-25.1103515625,-556.0068359375
-24.0595703125,-558.154296875
-23.5361328125,-559.5234375
-23.4326171875,-560.037109375
-23.3818359375,-559.9560546875
-23.01953125,-559.6689453125
-22.232421875,-559.4755859375
-21.2607421875,-559.48828125
-20.544921875,-559.6943359375
-20.4853515625,-560.0625
-21.1982421875,-560.599609375
-22.4599609375,-561.2509765625
-23.8359375,-561.7861328125
-24.92578125,-561.84765625
-25.5615234375,-561.16015625
-25.84765625,-559.7568359375
-26.0283203125,-558.0546875
-26.3125,-556.66796875
-26.7509765625,-556.0830078125
-27.2421875,-556.359375
-27.65625,-557.0654296875
-28,-557.501953125
-28.4716796875,-557.126953125
-29.359375,-555.8828125
-30.818359375,-554.2529296875
-32.681640625,-552.951171875
-34.4521484375,-552.4287109375
-35.4775390625,-552.51171875
-35.2646484375,-552.3642578125
-33.751953125,-550.849609375
-31.349609375,-547.1083984375
-28.654296875,-540.9609375
-25.953125,-532.79296875
-22.9072265625,-522.998046875
-18.6904296875,-511.30859375
-12.5947265625,-496.4833984375
-4.701171875,-476.5576171875
3.8828125,-449.505859375
11.48828125,-413.9609375
16.751953125,-369.5693359375
19.34765625,-316.830078125
20.109375,-256.693359375
20.50390625,-190.306640625
21.8212890625,-119.2197265625
24.578125,-45.873046875
28.4140625,26.1728515625
32.478515625,92.646484375
35.951171875,149.5498046875
38.3935546875,194.3408203125
39.7919921875,226.634765625
40.4033203125,248.119140625
40.5673828125,261.6357421875
40.537109375,269.859375
40.349609375,274.20703125
39.77734375,274.5126953125
38.4296875,269.5546875
35.9697265625,258.083984375
32.33203125,239.740234375
27.7978515625,215.3720703125
22.884765625,186.736328125
18.1630859375,155.8037109375
14.0908203125,124.076171875
10.9365234375,92.2060546875
8.728515625,60.1142578125
7.310546875,27.4296875
6.423828125,-5.947265625
5.8173828125,-39.505859375
5.2822265625,-72.1640625
4.6015625,-102.6787109375
3.5380859375,-130.1728515625
1.9228515625,-154.5458984375
-0.1884765625,-176.5419921875
-2.5009765625,-197.3701171875
-4.658203125,-218.095703125
-6.4833984375,-239.119140625
-8.1064453125,-260.009765625
-9.8642578125,-279.7734375
-12.037109375,-297.36328125
-14.6279296875,-312.2041015625
-17.2978515625,-324.482421875
-19.5087890625,-335.099609375
-20.7978515625,-345.2880859375
-20.986328125,-356.0810546875
-20.216796875,-367.8740234375
-18.8212890625,-380.2705078125
-17.1259765625,-392.298828125
-15.3564453125,-402.89453125
-13.658203125,-411.40625
-12.1708984375,-417.87890625
-11.095703125,-422.9970703125
-10.6845703125,-427.70703125
-11.1669921875,-432.7412109375
-12.6201171875,-438.3359375
-14.8603515625,-444.2392578125
-17.39453125,-449.9951171875
-19.521484375,-455.2421875
-20.5703125,-459.9111328125
-20.1904296875,-464.2109375
-18.52734375,-468.4560546875
-16.173828125,-472.8486328125
-13.9521484375,-477.3095703125
-12.5947265625,-481.4853515625
-12.52734375,-484.9326171875
-13.7744140625,-487.3720703125
-15.9873046875,-488.869140625
-18.56640625,-489.865234375
-20.8125,-490.9873046875
-22.08984375,-492.7373046875
-21.9833984375,-495.2158203125
-20.4296875,-498.0546875
-17.78515625,-500.623046875
-14.806640625,-502.392578125
-12.44921875,-503.279296875
-11.5625,-503.705078125
-12.56640625,-504.361328125
-15.2802734375,-505.775390625
-19.0126953125,-507.9775390625
-22.8369140625,-510.462890625
-25.9189453125,-512.50390625
-27.76953125,-513.623046875
-28.318359375,-513.9306640625
-27.869140625,-514.0751953125
-26.9248046875,-514.84765625
-26.0107421875,-516.6611328125
-25.4765625,-519.2744140625
-25.4033203125,-521.8828125
-25.6171875,-523.5693359375
-25.8427734375,-523.806640625
-25.890625,-522.7607421875
-25.765625,-521.2177734375
-25.5830078125,-520.162109375
-25.39453125,-520.259765625
-25.0556640625,-521.5224609375
-24.2822265625,-523.31640625
-22.8701171875,-524.7236328125
-20.900390625,-525.0712890625
-18.810546875,-524.328125
-17.208984375,-523.1220703125
-16.59375,-522.388671875
-17.09765625,-522.8271484375
-18.396484375,-524.5244140625
-19.86328125,-526.9130859375
-20.8544921875,-529.1171875
-21.0068359375,-530.447265625
-20.3740234375,-530.7919921875
-19.3671875,-530.6318359375
-18.5234375,-530.6845703125
-18.265625,-531.4365234375
-18.7392578125,-532.8369140625
-19.7939453125,-534.3544921875
-21.06640625,-535.3037109375
-22.1298828125,-535.251953125
-22.646484375,-534.275390625
-22.4736328125,-532.935546875
-21.69140625,-531.9716796875
-20.564453125,-531.916015625
-19.4384765625,-532.8056640625
-18.619140625,-534.16796875
-18.2578125,-535.271484375
-18.3173828125,-535.5107421875
-18.6201171875,-534.720703125
-18.9521484375,-533.2822265625
-19.169921875,-531.9443359375
-19.2529296875,-531.474609375
-19.287109375,-532.29296875
-19.4052734375,-534.2568359375
-19.7197265625,-536.7197265625
-20.26953125,-538.8203125
-21.0224609375,-539.91796875
-21.884765625,-539.91796875
-22.75390625,-539.3515625
-23.5732421875,-539.07421875
-24.322265625,-539.7763671875
-24.962890625,-541.5419921875
-25.3779296875,-543.7578125
-25.400390625,-545.4365234375
-24.9267578125,-545.8056640625
-24.037109375,-544.779296875
-23.0009765625,-543.072265625
-22.1845703125,-541.84765625
-21.876953125,-542.12109375
-22.185546875,-544.2236328125
-23.0009765625,-547.6396484375
-24.07421875,-551.2841796875
-25.125,-554.0302734375
-25.9384765625,-555.1923828125
-26.4189453125,-554.7509765625
-26.619140625,-553.2412109375
-26.7158203125,-551.427734375
-26.953125,-549.93359375
-27.5234375,-549.01171875
-28.4443359375,-548.57421875
-29.521484375,-548.439453125
-30.419921875,-548.580078125
-30.77734375,-549.1767578125
-30.3271484375,-550.4287109375
-28.958984375,-552.298828125
-26.80859375,-554.4091796875
-24.2568359375,-556.185546875
-21.875,-557.1572265625
-20.2587890625,-557.216796875
-19.8193359375,-556.6640625
-20.6064453125,-556.0234375
-22.302734375,-555.7509765625
-24.3291015625,-556.021484375
-26.080078125,-556.6943359375
-27.123046875,-557.42578125
-27.330078125,-557.8583984375
-26.8974609375,-557.77734375
-26.224609375,-557.20703125
-25.7431640625,-556.41015625
-25.748046875,-555.783203125
-26.3037109375,-555.6474609375
-27.271484375,-556.064453125
-28.419921875,-556.767578125
-29.564453125,-557.275390625
-30.6484375,-557.1474609375
-31.7109375,-556.2216796875
-32.7724609375,-554.76953125
-33.7177734375,-553.4267578125
-34.3125,-552.955078125
-34.3095703125,-553.876953125
-33.64453125,-556.1806640625
-32.515625,-559.22265625
-31.34765625,-561.955078125
-30.62890625,-563.408203125
-30.677734375,-563.189453125
-31.490234375,-561.72265625
-32.732421875,-560.109375
-33.8779296875,-559.5869140625
-34.455078125,-560.9111328125
-34.26953125,-563.9501953125
-33.4970703125,-567.7265625
-32.5791015625,-570.8779296875
-31.9609375,-572.2861328125
-31.8662109375,-571.564453125
-32.189453125,-569.189453125
-32.5986328125,-566.2685546875
-32.755859375,-564.0654296875
-32.50390625,-563.50390625
-31.8974609375,-564.8291015625
-31.115234375,-567.51171875
-30.3173828125,-570.501953125
-29.5849609375,-572.6689453125
-28.966796875,-573.287109375
-28.568359375,-572.330078125
-28.580078125,-570.443359375
-29.1787109375,-568.6142578125
-30.34765625,-567.73828125
-31.7509765625,-568.22265625
-32.7998046875,-569.828125
-32.8974609375,-571.8095703125
-31.7421875,-573.3095703125
-29.494140625,-573.78125
-26.7119140625,-573.2294921875
-24.1064453125,-572.171875
-22.240234375,-571.3193359375
-21.3271484375,-571.1806640625
-21.2294921875,-571.7705078125
-21.57421875,-572.607421875
-21.9892578125,-573.021484375
-22.3017578125,-572.599609375
-22.626953125,-571.4765625
-23.24609375,-570.267578125
-24.3623046875,-569.6875
-25.9111328125,-570.115234375
-27.5126953125,-571.390625
-28.6650390625,-572.9384765625
-29.021484375,-574.1298828125
-28.640625,-574.65625
-28.029296875,-574.6728515625
-27.9365234375,-574.638671875
-28.9814453125,-574.9658203125
-31.2822265625,-575.701171875
-34.310546875,-576.4638671875
-37.0908203125,-576.68359375
-38.642578125,-575.9970703125
-38.447265625,-574.546875
-36.6826171875,-572.9599609375
-34.1259765625,-572.0224609375
-31.78515625,-572.224609375
-30.4560546875,-573.4716796875
-30.40625,-575.0859375
-31.3173828125,-576.1826171875
-32.5185546875,-576.1728515625
-33.333984375,-575.0888671875
-33.3857421875,-573.5400390625
-32.689453125,-572.32421875
-31.5703125,-571.9609375
-30.4384765625,-572.466796875
-29.5849609375,-573.3994140625
-29.072265625,-574.1552734375
-28.7548828125,-574.279296875
-28.4072265625,-573.6787109375
-27.896484375,-572.6328125
-27.28515625,-571.6416015625
-26.822265625,-571.173828125
-26.796875,-571.5146484375
-27.3603515625,-572.6591796875
-28.4267578125,-574.33984375
-29.6875,-576.0859375
-30.72265625,-577.3330078125
-31.1630859375,-577.59375
-30.822265625,-576.654296875
-29.78125,-574.724609375
-28.3583984375,-572.4326171875
-26.9892578125,-570.626953125
-26.029296875,-570.0478515625
-25.591796875,-570.9609375
-25.51171875,-572.9765625
-25.4306640625,-575.1611328125
-24.994140625,-576.4345703125
-24.0439453125,-576.0966796875
-22.6982421875,-574.2001953125
-21.2958984375,-571.5400390625
-20.2333984375,-569.306640625
-19.8173828125,-568.55859375
-20.189453125,-569.7548828125
-21.30078125,-572.5419921875
-22.9306640625,-575.9140625
-24.7216796875,-578.681640625
-26.2880859375,-580.029296875
-27.3369140625,-579.876953125
-27.7548828125,-578.84765625
-27.6484375,-577.90625
-27.2802734375,-577.845703125
-26.94921875,-578.9228515625
-26.8583984375,-580.7578125
-27.0185546875,-582.5654296875
-27.294921875,-583.5439453125
-27.4931640625,-583.3076171875
-27.4736328125,-582.0703125
-27.2080078125,-580.5341796875
-26.779296875,-579.529296875
-26.3349609375,-579.6162109375
-26.0341796875,-580.8642578125
-25.955078125,-582.8740234375
-26.029296875,-585.0029296875
-26.0322265625,-586.6943359375
-25.67578125,-587.7177734375
-24.767578125,-588.21484375
-23.3388671875,-588.49609375
-21.66015625,-588.7607421875
-20.1552734375,-588.9345703125
-19.26171875,-588.7470703125
-19.2802734375,-587.9697265625
-20.2578125,-586.6474609375
-21.9384765625,-585.177734375
-23.81640625,-584.1796875
-25.296875,-584.19921875
-25.9140625,-585.396484375
-25.544921875,-587.3583984375
-24.4716796875,-589.201171875
-23.2509765625,-589.95703125
-22.458984375,-589.0712890625
-22.427734375,-586.7138671875
-23.1337890625,-583.7314453125
-24.26953125,-581.23046875
-25.453125,-580.041015625
-26.4365234375,-580.3447265625
-27.189453125,-581.6728515625
-27.8203125,-583.22265625
-28.4375,-584.30078125
-29.0478515625,-584.642578125
-29.6044921875,-584.4892578125
-30.0869140625,-584.4091796875
-30.55078125,-584.994140625
-31.103515625,-586.580078125
-31.8115234375,-589.09765625
-32.62890625,-592.07421875
-33.3935546875,-594.7626953125
-33.884765625,-596.40234375
-33.916015625,-596.5078125
-33.4169921875,-595.111328125
-32.4912109375,-592.82421875
-31.408203125,-590.6484375
-30.5146484375,-589.591796875
-30.126953125,-590.2138671875
-30.4296875,-592.337890625
-31.4052734375,-595.078125
-32.8349609375,-597.2158203125
-34.3671875,-597.7666015625
-35.65234375,-596.46875
-36.48828125,-593.904296875
-36.8798828125,-591.18359375
-37.0048828125,-589.3828125
-37.0791015625,-589.017578125
-37.2607421875,-589.865234375
-37.611328125,-591.18359375
-38.1201171875,-592.224609375
-38.724609375,-592.6591796875
-39.328125,-592.6865234375
-39.8017578125,-592.7568359375
-40.033203125,-593.162109375
-39.982421875,-593.81640625
-39.7470703125,-594.35546875
-39.5615234375,-594.4775390625
-39.7177734375,-594.2431640625
-40.4052734375,-594.0947265625
-41.572265625,-594.5771484375
-42.8837890625,-595.912109375
-43.828125,-597.7412109375
-43.9052734375,-599.2392578125
-42.8515625,-599.564453125
-40.763671875,-598.4033203125
-38.1083984375,-596.251953125
-35.580078125,-594.26171875
-33.8828125,-593.677734375
-33.48046875,-595.1689453125
-34.419921875,-598.4228515625
-36.2919921875,-602.203125
-38.375,-604.88671875
-39.9267578125,-605.2392578125
-40.48046875,-603.0185546875
-39.998046875,-599.14453125
-38.82421875,-595.330078125
-37.509765625,-593.3173828125
-36.5625,-594.0673828125
-36.28515625,-597.287109375
-36.720703125,-601.53515625
-37.7099609375,-604.8515625
-39.0068359375,-605.6181640625
-40.3515625,-603.31640625
-41.505859375,-598.7705078125
-42.279296875,-593.8212890625
-42.560546875,-590.5146484375
-42.3408203125,-590.1787109375
-41.7158203125,-592.8388671875
-40.8642578125,-597.2470703125
-40.0380859375,-601.53515625
-39.513671875,-604.109375
-39.5146484375,-604.361328125
-40.09375,-602.818359375
-41.0400390625,-600.7353515625
-41.8828125,-599.3828125
-42.0654296875,-599.455078125
-41.205078125,-600.8388671875
-39.32421875,-602.8056640625
-36.9306640625,-604.4521484375
-34.837890625,-605.1513671875
-33.8173828125,-604.802734375
-34.2470703125,-603.8046875
-35.9619140625,-602.814453125
-38.3671875,-602.4326171875
-40.7060546875,-602.9482421875
-42.3408203125,-604.2177734375
-42.9345703125,-605.7216796875
-42.482421875,-606.8251953125
-41.26953125,-607.1142578125
-39.734375,-606.5986328125
-38.3154296875,-605.669921875
-37.3076171875,-604.8193359375
-36.8154296875,-604.3427734375
-36.7998046875,-604.2470703125
-37.1630859375,-604.3935546875
-37.828125,-604.7431640625
-38.7509765625,-605.4814453125
-39.8916015625,-606.90234375
-41.150390625,-609.1201171875
-42.357421875,-611.8076171875
-43.3232421875,-614.1650390625
-43.9306640625,-615.2333984375
-44.169921875,-614.4169921875
-44.1298828125,-611.927734375
-43.953125,-608.806640625
-43.7890625,-606.4677734375
-43.755859375,-606.0078125
-43.90234375,-607.6484375
-44.146484375,-610.6083984375
-44.2783203125,-613.462890625
-44.0078125,-614.845703125
-43.1376953125,-614.173828125
-41.7158203125,-611.9833984375
-40.1181640625,-609.65234375
-38.939453125,-608.658203125
-38.7236328125,-609.763671875
-39.673828125,-612.60546875
-41.5244140625,-615.8525390625
-43.6513671875,-617.8935546875
-45.357421875,-617.7021484375
-46.2099609375,-615.4287109375
-46.2177734375,-612.3935546875
-45.78125,-610.4140625
-45.4013671875,-610.8212890625
-45.3564453125,-613.720703125
-45.5302734375,-617.884765625
-45.4775390625,-621.36328125
-44.708984375,-622.478515625
-43.0009765625,-620.69921875
-40.564453125,-616.94140625
-37.9990234375,-613.0947265625
-36.0087890625,-611.0283203125
-35.048828125,-611.61328125
-35.0830078125,-614.2841796875
-35.6201171875,-617.39453125
-36.0048828125,-619.1396484375
-35.8134765625,-618.5302734375
-35.1171875,-615.9033203125
-34.4501953125,-612.697265625
-34.466796875,-610.69140625
-35.5205078125,-611.08984375
-37.3994140625,-613.90625
-39.400390625,-617.98046875
-40.7099609375,-621.5546875
-40.845703125,-623.158203125
-39.9150390625,-622.3134765625
-38.5546875,-619.72265625
-37.587890625,-616.8525390625
-37.6005859375,-615.1875
-38.70703125,-615.521484375
-40.564453125,-617.6162109375
-42.619140625,-620.3994140625
-44.3623046875,-622.5390625
-45.5068359375,-623.1181640625
-46.0009765625,-622.0556640625
-45.962890625,-620.076171875
-45.5712890625,-618.2578125
-45.001953125,-617.4951171875
-44.4033203125,-618.0791015625
-43.896484375,-619.6123046875
-43.5859375,-621.240234375
-43.564453125,-622.0927734375
-43.90234375,-621.7373046875
-44.626953125,-620.40625
-45.6728515625,-618.833984375
-46.8544921875,-617.810546875
-47.896484375,-617.7060546875
-48.5185546875,-618.2626953125
-48.5693359375,-618.8154296875
-48.1123046875,-618.79296875
-47.4365234375,-618.146484375
-46.9267578125,-617.40234375
-46.86328125,-617.263671875
-47.2666015625,-618.0478515625
-47.8935546875,-619.37109375
-48.3837890625,-620.357421875
-48.4541015625,-620.228515625
-48.0263671875,-618.8798828125
-47.2373046875,-617.0234375
-46.3408203125,-615.779296875
-45.578125,-616.017578125
-45.048828125,-617.8193359375
-44.5810546875,-620.447265625
-43.580078125,-622.7392578125
-40.890625,-623.7158203125
-34.7861328125,-622.9775390625
-23.234375,-620.8046875
-4.3603515625,-617.9736328125
22.955078125,-615.4326171875
58.6650390625,-613.9853515625
101.4609375,-614.060546875
149.103515625,-615.640625
199.0302734375,-618.34375
248.994140625,-621.6162109375
297.419921875,-624.93359375
343.38671875,-627.9794921875
386.298828125,-630.7109375
425.5361328125,-633.3115234375
460.24609375,-636.013671875
489.4052734375,-638.908203125
512.095703125,-641.8623046875
527.8779296875,-644.5859375
537.0888671875,-646.7841796875
540.87109375,-648.3134765625
540.921875,-649.26171875
539.080078125,-649.92578125
536.880859375,-650.69921875
535.2763671875,-651.8798828125
534.5498046875,-653.5498046875
534.4619140625,-655.53515625
534.5517578125,-657.4794921875
534.4423828125,-658.9716796875
534.0263671875,-659.669921875
533.4462890625,-659.38671875
532.9306640625,-658.158203125
532.6142578125,-656.2509765625
532.4443359375,-654.123046875
532.2412109375,-652.291015625
531.8076171875,-651.1748046875
531.0107421875,-650.96875
529.80859375,-651.6279296875
528.205078125,-652.9072265625
526.2265625,-654.4404296875
523.9296875,-655.8125
521.4306640625,-656.6513671875
518.935546875,-656.708984375
516.7255859375,-655.94140625
515.0947265625,-654.5341796875
514.2890625,-652.8720703125
514.419921875,-651.4365234375
515.4091796875,-650.6337890625
517.001953125,-650.640625
518.8251953125,-651.33203125
520.515625,-652.3681640625
521.84765625,-653.3876953125
522.8349609375,-654.1533203125
523.7275390625,-654.5927734375
524.861328125,-654.70703125
526.4423828125,-654.4755859375
528.357421875,-653.8505859375
530.171875,-652.8515625
531.3447265625,-651.654296875
531.5185546875,-650.5966796875
530.740234375,-650.0673828125
529.462890625,-650.3330078125
528.328125,-651.3623046875
527.859375,-652.8037109375
528.224609375,-654.12890625
529.173828125,-654.91796875
530.1689453125,-655.09375
530.607421875,-654.9111328125
530.0556640625,-654.759765625
528.4130859375,-654.9462890625
525.9853515625,-655.5771484375
523.4140625,-656.578125
521.4482421875,-657.73046875
520.65234375,-658.7490234375
521.1904296875,-659.3759765625
522.77734375,-659.47265625
524.841796875,-659.04296875
526.8154296875,-658.201171875
528.3671875,-657.1416015625
529.501953125,-656.10546875
530.4521484375,-655.3408203125
531.4775390625,-654.9931640625
532.671875,-655.0224609375
533.94140625,-655.228515625
535.0947265625,-655.3896484375
536.0302734375,-655.447265625
536.81640625,-655.5361328125
537.634765625,-655.8623046875
538.6103515625,-656.5
539.697265625,-657.2548828125
540.6728515625,-657.7197265625
541.2626953125,-657.4853515625
541.3125,-656.4208984375
540.8857421875,-654.830078125
540.267578125,-653.357421875
539.8037109375,-652.673828125
539.7412109375,-653.1044921875
540.1220703125,-654.47265625
540.8193359375,-656.197265625
541.6611328125,-657.578125
542.521484375,-658.0888671875
543.3466796875,-657.5537109375
544.1025390625,-656.232421875
544.7294921875,-654.75390625
545.1064453125,-653.8798828125
545.0458984375,-654.1767578125
544.3369140625,-655.7041015625
542.8603515625,-657.958984375
540.6953125,-660.080078125
538.1904296875,-661.25390625
535.90234375,-661.0947265625
534.4384765625,-659.8359375
534.2548828125,-658.2294921875
535.4580078125,-657.1796875
537.7314453125,-657.3203125
540.416015625,-658.728515625
542.7353515625,-660.91796875
544.0654296875,-663.0693359375
544.1181640625,-664.37890625
543.0009765625,-664.3720703125
541.1162109375,-663.0869140625
538.9814453125,-661.0537109375
537.0673828125,-659.0927734375
535.7041015625,-657.9853515625
535.080078125,-658.1552734375
535.2431640625,-659.50390625
536.11328125,-661.4599609375
537.4814453125,-663.2158203125
539.052734375,-664.04296875
540.544921875,-663.595703125
541.7685546875,-662.03515625
542.6728515625,-659.94921875
543.3212890625,-658.07421875
543.8505859375,-656.9755859375
544.4267578125,-656.8349609375
545.2099609375,-657.4189453125
546.2939453125,-658.24609375
547.67578125,-658.8583984375
549.2373046875,-659.0791015625
550.765625,-659.1142578125
552.00390625,-659.404296875
552.73828125,-660.2998046875
552.8896484375,-661.7744140625
552.529296875,-663.3740234375
551.86328125,-664.4482421875
551.15234375,-664.51953125
550.609375,-663.5654296875
550.3359375,-662.060546875
550.3076171875,-660.7431640625
550.435546875,-660.2373046875
550.630859375,-660.7470703125
550.8564453125,-661.98046875
551.146484375,-663.322265625
551.5869140625,-664.162109375
552.2783203125,-664.1591796875
553.2734375,-663.359375
554.533203125,-662.1064453125
555.9365234375,-660.849609375
557.3076171875,-659.9521484375
558.4560546875,-659.595703125
559.2197265625,-659.8095703125
559.5146484375,-660.56640625
559.3955078125,-661.8330078125
559.0498046875,-663.53125
558.7333984375,-665.4404296875
558.634765625,-667.16796875
558.7607421875,-668.2529296875
558.9208984375,-668.3505859375
558.8095703125,-667.39453125
558.154296875,-665.6572265625
556.8974609375,-663.681640625
555.263671875,-662.0966796875
553.7265625,-661.3984375
552.8564453125,-661.7919921875
553.1044921875,-663.14453125
554.6083984375,-665.0478515625
557.0927734375,-666.98046875
559.9306640625,-668.4658203125
562.3330078125,-669.2255859375
563.625,-669.2939453125
563.486328125,-668.9755859375
562.056640625,-668.6689453125
559.869140625,-668.6640625
557.6103515625,-669.0126953125
555.8662109375,-669.5732421875
554.9423828125,-670.1044921875
554.8447265625,-670.400390625
555.3466796875,-670.3564453125
556.1298828125,-669.982421875
556.9033203125,-669.3662109375
557.4814453125,-668.6328125
557.833984375,-667.9228515625
558.0712890625,-667.4072265625
558.36328125,-667.2568359375
558.8271484375,-667.5634765625
559.416015625,-668.267578125
559.91796875,-669.1328125
560.0751953125,-669.8408203125
559.734375,-670.1318359375
558.9482421875,-669.9501953125
557.955078125,-669.51953125
557.07421875,-669.2568359375
556.6005859375,-669.5791015625
556.7158203125,-670.68359375
557.439453125,-672.408203125
558.6220703125,-674.314453125
559.9482421875,-675.869140625
560.9912109375,-676.70703125
561.3447265625,-676.7763671875
560.8212890625,-676.2978515625
559.58203125,-675.5986328125
558.1533203125,-674.9375
557.236328125,-674.4189453125
557.396484375,-674.03125
558.7822265625,-673.7421875
561.0224609375,-673.5673828125
563.376953125,-673.568359375
565.0966796875,-673.7783203125
565.763671875,-674.111328125
565.4443359375,-674.3427734375
564.611328125,-674.2158203125
563.865234375,-673.59375
563.623046875,-672.583984375
563.9453125,-671.5400390625
564.59375,-670.91796875
565.2607421875,-671.0224609375
565.79296875,-671.7705078125
566.2744140625,-672.677734375
566.9072265625,-673.146484375
567.8193359375,-672.888671875
568.947265625,-672.16015625
570.0439453125,-671.6435546875
570.8291015625,-672.025390625
571.1494140625,-673.55078125
571.0595703125,-675.853515625
570.7744140625,-678.107421875
570.541015625,-679.4580078125
570.484375,-679.44921875
570.5625,-678.228515625
570.6171875,-676.4716796875
570.484375,-675.0888671875
570.091796875,-674.8193359375
569.462890625,-675.8984375
568.6943359375,-677.9228515625
567.9169921875,-680.0361328125
567.2890625,-681.322265625
566.974609375,-681.2607421875
567.107421875,-679.9609375
567.74609375,-678.087890625
568.8203125,-676.521484375
570.1259765625,-675.9443359375
571.3662109375,-676.546875
572.2490234375,-678.0078125
572.5888671875,-679.716796875
572.349609375,-681.0546875
571.6318359375,-681.6171875
570.609375,-681.3037109375
569.4609375,-680.33203125
568.328125,-679.162109375
567.279296875,-678.3505859375
566.279296875,-678.33984375
565.22265625,-679.27734375
564.0009765625,-680.927734375
562.619140625,-682.763671875
561.2626953125,-684.1875
560.2646484375,-684.7744140625
559.95703125,-684.427734375
560.4658203125,-683.3798828125
561.576171875,-682.044921875
562.818359375,-680.80859375
563.705078125,-679.837890625
563.9501953125,-679.0322265625
563.33984375,-678.1708984375
561.1630859375,-677.181640625
555.6044921875,-676.36328125
543.7041015625,-676.3515625
522.2119140625,-677.8623046875
488.9716796875,-681.291015625
444.1015625,-686.4443359375
390.2763671875,-692.5361328125
331.8955078125,-698.48828125
273.5625,-703.4169921875
218.7119140625,-707.046875
169.076171875,-709.814453125
125.0634765625,-712.6005859375
86.61328125,-716.2099609375
53.8974609375,-720.9599609375
27.568359375,-726.5029296875
8.4677734375,-731.98046875
-2.92578125,-736.3916015625
-7.0810546875,-738.99609375
-5.646484375,-739.634765625
-1.19140625,-738.810546875
3.5322265625,-737.5146484375
6.4921875,-736.8447265625
7.0166015625,-737.560546875
5.8173828125,-739.76171875
4.3818359375,-742.8427734375
4.0625,-745.748046875
5.396484375,-747.42578125
7.9326171875,-747.2802734375
10.5986328125,-745.4521484375
12.287109375,-742.810546875
12.33203125,-740.603515625
10.716796875,-739.91015625
8.00390625,-741.12109375
5.0537109375,-743.7236328125
2.6796875,-746.5244140625
1.3662109375,-748.2197265625
1.115234375,-748.0400390625
1.5224609375,-746.130859375
1.9677734375,-743.494140625
1.8994140625,-741.4951171875
1.0322265625,-741.1982421875
-0.5615234375,-742.85546875
-2.5087890625,-745.810546875
-4.294921875,-748.8232421875
-5.49609375,-750.6201171875
-5.96875,-750.4208984375
-5.90234375,-748.23046875
-5.7099609375,-744.8232421875
-5.8193359375,-741.431640625
-6.4658203125,-739.275390625
-7.607421875,-739.0771484375
-8.95703125,-740.7626953125
-10.0966796875,-743.4931640625
-10.6376953125,-746.0263671875
-10.3515625,-747.2578125
-9.240234375,-746.6748046875
-7.56640625,-744.5185546875
-5.7763671875,-741.6123046875
-4.380859375,-738.9736328125
-3.7646484375,-737.4013671875
-4.0205078125,-737.1904296875
-4.9365234375,-738.10546875
-6.119140625,-739.599609375
-7.2109375,-741.1044921875
-8.044921875,-742.22265625
-8.6962890625,-742.7333984375
-9.3427734375,-742.4990234375
-10.0791015625,-741.3896484375
-10.7685546875,-739.337890625
-11.0673828125,-736.4794921875
-10.609375,-733.2841796875
-9.2451171875,-730.5107421875
-7.189453125,-728.9794921875
-4.9873046875,-729.19921875
-3.2685546875,-731.0986328125
-2.470703125,-733.9892578125
-2.646484375,-736.8388671875
-3.484375,-738.6943359375
-4.50390625,-739.0654296875
-5.3037109375,-738.04296875
-5.724609375,-736.177734375
-5.8232421875,-734.2353515625
-5.748046875,-732.96484375
-5.6162109375,-732.916015625
-5.48046875,-734.2841796875
-5.3974609375,-736.7958984375
-5.443359375,-739.70703125
-5.67578125,-742.0224609375
-6.0546875,-742.8896484375
-6.4052734375,-742.009765625
-6.447265625,-739.8349609375
-5.9052734375,-737.4052734375
-4.66796875,-735.861328125
-2.91015625,-735.900390625
-1.0546875,-737.47265625
0.390625,-739.8896484375
1.0791015625,-742.203125
0.986328125,-743.6650390625
0.431640625,-743.9814453125
-0.083984375,-743.349609375
-0.1240234375,-742.2900390625
0.4482421875,-741.4072265625
1.3955078125,-741.1640625
2.236328125,-741.734375
2.5068359375,-742.982421875
1.9765625,-744.533203125
0.7548828125,-745.9052734375
-0.802734375,-746.697265625
-2.2744140625,-746.7001953125
-3.3505859375,-745.9453125
-3.90234375,-744.6435546875
-3.9423828125,-743.1083984375
-3.5400390625,-741.6552734375
-2.748046875,-740.5283203125
-1.619140625,-739.8251953125
-0.248046875,-739.474609375
1.1767578125,-739.3095703125
2.3720703125,-739.1806640625
3.0517578125,-739.0703125
3.0341796875,-739.1201171875
2.3291015625,-739.556640625
1.1708984375,-740.5234375
-0.0556640625,-741.93359375
-0.9462890625,-743.439453125
-1.251953125,-744.5537109375
-0.984375,-744.87890625
-0.4267578125,-744.3427734375
-0.01953125,-743.2421875
-0.1630859375,-742.0810546875
-0.98828125,-741.2744140625
-2.2373046875,-740.9248046875
-3.34375,-740.8349609375
-3.67578125,-740.7265625
-2.8876953125,-740.482421875
-1.1220703125,-740.234375
1.009765625,-740.2646484375
2.71875,-740.76953125
3.447265625,-741.69921875
3.1279296875,-742.7373046875
2.205078125,-743.4794921875
1.37890625,-743.6767578125
1.234375,-743.396484375
2.0009765625,-742.9677734375
3.513671875,-742.7939453125
5.384765625,-743.130859375
7.1865234375,-743.95703125
8.5849609375,-744.974609375
9.388671875,-745.7421875
9.5546875,-745.9013671875
9.166015625,-745.38671875
8.4267578125,-744.458984375
7.6240234375,-743.5673828125
7.052734375,-743.08984375
6.9306640625,-743.1630859375
7.3134765625,-743.623046875
8.0576171875,-744.111328125
8.8837890625,-744.263671875
9.51953125,-743.9091796875
9.810546875,-743.181640625
9.7939453125,-742.482421875
9.65625,-742.2822265625
9.634765625,-742.8662109375
9.9091796875,-744.1904296875
10.51171875,-745.8828125
11.2939453125,-747.392578125
11.9951171875,-748.216796875
12.3544921875,-748.0966796875
12.2197265625,-747.1181640625
11.59765625,-745.685546875
10.6162109375,-744.34765625
9.4560546875,-743.599609375
8.2705078125,-743.7080078125
7.142578125,-744.61328125
6.09765625,-745.9365234375
5.18359375,-747.1240234375
4.5224609375,-747.7001953125
4.2890625,-747.48046875
4.6259765625,-746.626953125
5.544921875,-745.48828125
6.8818359375,-744.361328125
8.3369140625,-743.3544921875
9.5888671875,-742.4072265625
10.3994140625,-741.5205078125
10.7021484375,-740.892578125
10.607421875,-740.8837890625
10.3291015625,-741.751953125
10.0927734375,-743.376953125
10.0263671875,-745.203125
10.1357421875,-746.47265625
10.30859375,-746.6455078125
10.3857421875,-745.7412109375
10.2451171875,-744.3525390625
9.9072265625,-743.3056640625
9.54296875,-743.1630859375
9.3994140625,-743.90234375
9.6484375,-744.95703125
10.26171875,-745.611328125
10.990234375,-745.4580078125
11.46484375,-744.626953125
11.3662109375,-743.626953125
10.5732421875,-742.98046875
9.2392578125,-742.892578125
7.7353515625,-743.1748046875
6.4951171875,-743.416015625
5.8408203125,-743.3203125
5.8583984375,-742.9658203125
6.3623046875,-742.8056640625
6.986328125,-743.359375
7.3359375,-744.7958984375
7.1708984375,-746.71875
6.5390625,-748.3056640625
5.7578125,-748.7705078125
5.28515625,-747.865234375
5.46875,-746.08203125
6.345703125,-744.43359375
7.6005859375,-743.8896484375
8.744140625,-744.8466796875
9.349609375,-746.9189453125
9.2216796875,-749.18359375
8.388671875,-750.6787109375
6.9951171875,-750.8896484375
5.197265625,-749.939453125
3.140625,-748.427734375
0.9951171875,-747.0380859375
-0.99609375,-746.205078125
-2.5546875,-745.97265625
-3.4716796875,-746.12109375
-3.7099609375,-746.4169921875
-3.4208984375,-746.8037109375
-2.83203125,-747.4091796875
-2.1376953125,-748.380859375
-1.4228515625,-749.677734375
-0.7119140625,-751.0029296875
-0.0244140625,-751.94140625
0.61328125,-752.2373046875
1.17578125,-751.984375
1.6572265625,-751.6142578125
2.0517578125,-751.646484375
2.3720703125,-752.4033203125
2.6708984375,-753.83984375
3.0458984375,-755.6240234375
3.564453125,-757.310546875
4.1943359375,-758.5546875
4.791015625,-759.240234375
5.201171875,-759.4990234375
5.37890625,-759.6669921875
5.46484375,-760.1025390625
5.7431640625,-760.986328125
6.4990234375,-762.1328125
7.8359375,-763.0068359375
9.5791015625,-762.95703125
11.349609375,-761.6083984375
12.7353515625,-759.2099609375
13.4365234375,-756.6552734375
13.3125,-755.107421875
12.3291015625,-755.3896484375
10.513671875,-757.470703125
7.9912109375,-760.41015625
5.029296875,-762.7744140625
2.046875,-763.28515625
-0.4541015625,-761.2783203125
-2.0283203125,-756.716796875
-2.357421875,-749.8740234375
-1.259765625,-740.9716796875
1.3583984375,-730.0458984375
5.5458984375,-717.0009765625
11.25,-701.60546875
18.2509765625,-683.41796875
26.07421875,-661.7001953125
34.060546875,-635.548828125
41.5458984375,-604.203125
48.0771484375,-567.4052734375
53.529296875,-525.5712890625
58.0810546875,-479.642578125
62.142578125,-430.6611328125
66.216796875,-379.3896484375
70.7099609375,-326.2080078125
75.74609375,-271.3662109375
81.05859375,-215.388671875
86.0703125,-159.37109375
90.1240234375,-105.046875
92.76953125,-54.6025390625
93.98828125,-10.2646484375
94.185546875,26.2275390625
93.9423828125,54.0625
93.6376953125,73.44921875
93.20703125,85.2890625
92.1953125,90.580078125
90.078125,89.8828125
86.62890625,83.220703125
82.115234375,70.431640625
77.2197265625,51.7099609375
72.73828125,27.947265625
69.2392578125,0.6318359375
66.8203125,-28.62109375
65.1171875,-58.611328125
63.513671875,-88.8310546875
61.4658203125,-119.4072265625
58.755859375,-150.7314453125
55.5634765625,-182.9560546875
52.330078125,-215.7060546875
49.54296875,-248.1357421875
47.5283203125,-279.2802734375
46.359375,-308.4521484375
45.859375,-335.4501953125
45.6767578125,-360.4912109375
45.404296875,-383.96875
44.7177734375,-406.150390625
43.509765625,-427.0546875
41.90234375,-446.5029296875
40.171875,-464.30859375
38.6220703125,-480.435546875
37.48828125,-495.0185546875
36.93359375,-508.30859375
37.0546875,-520.576171875
37.8603515625,-532.060546875
39.1982421875,-542.9072265625
40.70703125,-553.146484375
41.8837890625,-562.7197265625
42.2568359375,-571.5712890625
41.5732421875,-579.7529296875
39.8916015625,-587.4794921875
37.55859375,-595.0537109375
35.091796875,-602.7236328125
33.0341796875,-610.5087890625
31.8017578125,-618.1376953125
31.5791015625,-625.142578125
32.2412109375,-631.09765625
33.3798828125,-635.8671875
34.423828125,-639.7314453125
34.8671875,-643.2666015625
34.4697265625,-647.03125
33.359375,-651.26953125
31.970703125,-655.8115234375
30.837890625,-660.2255859375
30.3779296875,-664.107421875
30.7216796875,-667.3056640625
31.6826171875,-669.9296875
32.8486328125,-672.208984375
33.75390625,-674.306640625
34.0478515625,-676.296875
33.6142578125,-678.236328125
32.60546875,-680.275390625
31.3623046875,-682.6611328125
30.234375,-685.56640625
29.4326171875,-688.8876953125
28.9921875,-692.1708984375
28.8720703125,-694.77734375
29.0791015625,-696.22265625
29.712890625,-696.4501953125
30.88671875,-695.9248046875
32.58203125,-695.4169921875
34.5888671875,-695.6279296875
36.53125,-696.84765625
37.9794921875,-698.810546875
38.59375,-700.875
38.203125,-702.3896484375
36.8447265625,-703.009765625
34.7431640625,-702.8193359375
32.2802734375,-702.220703125
29.9296875,-701.6806640625
28.185546875,-701.5390625
27.4443359375,-701.943359375
27.8818359375,-702.935546875
29.3447265625,-704.5234375
31.3447265625,-706.6474609375
33.1865234375,-709.1123046875
34.1953125,-711.4921875
33.921875,-713.2138671875
32.275390625,-713.78125
29.533203125,-713.0390625
26.2646484375,-711.3701171875
23.1552734375,-709.6162109375
20.79296875,-708.744140625
19.4892578125,-709.3857421875
19.2216796875,-711.49609375
19.708984375,-714.3369140625
20.548828125,-716.8076171875
21.3671875,-717.9599609375
21.9111328125,-717.431640625
22.0654296875,-715.6171875
21.814453125,-713.50390625
21.216796875,-712.23828125
20.373046875,-712.607421875
19.4228515625,-714.6689453125
18.537109375,-717.6748046875
17.9033203125,-720.3779296875
17.6865234375,-721.615234375
17.966796875,-720.900390625
18.6611328125,-718.7255859375
19.525390625,-716.341796875
20.216796875,-715.126953125
20.4501953125,-715.8369140625
20.1494140625,-718.2119140625
19.4921875,-721.1455078125
18.8232421875,-723.3291015625
18.474609375,-723.962890625
18.6240234375,-723.1376953125
19.2421875,-721.638671875
20.12109375,-720.4189453125
20.96484375,-720.08984375
21.4921875,-720.6943359375
21.5166015625,-721.8447265625
21.0107421875,-723.05859375
20.09375,-724.0458984375
19.005859375,-724.783203125
18.0341796875,-725.376953125
17.3955078125,-725.8662109375
17.1591796875,-726.171875
17.244140625,-726.2001953125
17.5048828125,-726.015625
17.826171875,-725.90625
18.16796875,-726.2685546875
18.5537109375,-727.3837890625
19.021484375,-729.1982421875
19.59765625,-731.259765625
20.306640625,-732.8857421875
21.1806640625,-733.4638671875
22.25390625,-732.794921875
23.5048828125,-731.2529296875
24.80859375,-729.6982421875
25.9267578125,-729.1025390625
26.5966796875,-730.0751953125
26.671875,-732.5029296875
26.2197265625,-735.533203125
25.515625,-737.93359375
24.9052734375,-738.6611328125
24.6259765625,-737.373046875
24.701171875,-734.59765625
24.9599609375,-731.5009765625
25.189453125,-729.3193359375
25.279296875,-728.7919921875
25.271484375,-729.8681640625
25.3037109375,-731.8505859375
25.482421875,-733.83203125
25.7919921875,-735.166015625
26.046875,-735.7333984375
25.9462890625,-735.8837890625
25.2138671875,-736.130859375
23.75,-736.8095703125
21.736328125,-737.8701171875
19.5751953125,-738.9560546875
17.7021484375,-739.658203125
16.3466796875,-739.8046875
15.4248046875,-739.5654296875
14.6376953125,-739.3212890625
13.71484375,-739.3935546875
12.6533203125,-739.8408203125
11.7451171875,-740.4306640625
11.4052734375,-740.8046875
11.8994140625,-740.7255859375
13.216796875,-740.2333984375
15.1044921875,-739.6357421875
17.1953125,-739.33984375
19.119140625,-739.623046875
20.52734375,-740.46875
21.1162109375,-741.5595703125
20.7001953125,-742.4638671875
19.3349609375,-742.8857421875
17.39453125,-742.8017578125
15.501953125,-742.4296875
14.296875,-742.0400390625
14.14453125,-741.7763671875
14.9375,-741.58203125
16.1083984375,-741.2822265625
16.8779296875,-740.7607421875
16.595703125,-740.095703125
15.0478515625,-739.5458984375
12.552734375,-739.37890625
9.8173828125,-739.6552734375
7.6474609375,-740.08984375
6.640625,-740.1513671875
7,-739.3447265625
8.4814453125,-737.5908203125
10.5009765625,-735.3876953125
12.322265625,-733.611328125
13.328125,-733.0458984375
13.224609375,-733.931640625
12.146484375,-735.767578125
10.6201171875,-737.509765625
9.369140625,-738.0595703125
9.041015625,-736.84765625
9.9453125,-734.1826171875
11.9208984375,-731.1708984375
14.4150390625,-729.193359375
16.732421875,-729.2119140625
18.341796875,-731.275390625
19.04296875,-734.49609375
18.962890625,-737.5146484375
18.4033203125,-739.2197265625
17.6591796875,-739.328125
16.884765625,-738.48828125
16.0869140625,-737.826171875
15.212890625,-738.189453125
14.3017578125,-739.5986328125
13.55078125,-741.234375
13.25,-741.98828125
13.6240234375,-741.2041015625
14.6884765625,-739.1083984375
16.2119140625,-736.708984375
17.7861328125,-735.228515625
18.9306640625,-735.443359375
19.2705078125,-737.267578125
18.666015625,-739.8193359375
17.2734375,-741.8828125
15.4736328125,-742.560546875
13.6796875,-741.748046875
12.1494140625,-740.1611328125
10.9326171875,-738.93359375
9.9716796875,-738.9755859375
9.2890625,-740.470703125
9.0888671875,-742.767578125
9.6767578125,-744.7265625
11.2255859375,-745.318359375
13.5859375,-744.177734375
16.2421875,-741.7724609375
18.4921875,-739.1484375
19.703125,-737.4052734375
19.533203125,-737.1884765625
18.025390625,-738.4619140625
15.595703125,-740.6279296875
12.9130859375,-742.888671875
10.7314453125,-744.6513671875
9.6455078125,-745.720703125
9.9052734375,-746.279296875
11.2998046875,-746.646484375
13.232421875,-747.078125
14.9384765625,-747.6728515625
15.7958984375,-748.3935546875
15.533203125,-749.1630859375
14.3154296875,-749.935546875
12.625,-750.7236328125
11.0576171875,-751.54296875
10.11328125,-752.3369140625
10.0595703125,-752.93359375
10.8896484375,-753.09375
12.3603515625,-752.6416015625
14.1162109375,-751.6025390625
15.787109375,-750.2705078125
17.046875,-749.162109375
17.6201171875,-748.8125
17.2705078125,-749.4990234375
15.853515625,-751.05859375
13.3818359375,-752.8935546875
10.115234375,-754.208984375
6.6064453125,-754.361328125
3.59375,-753.1689453125
1.7822265625,-751.052734375
1.5537109375,-748.931640625
2.7705078125,-747.88671875
4.791015625,-748.6826171875
6.7353515625,-751.3408203125
7.865234375,-755.0302734375
7.880859375,-758.333984375
7.01171875,-759.91796875
5.861328125,-759.1962890625
5.10546875,-756.7060546875
5.2001953125,-753.9091796875
6.2109375,-752.46484375
7.82421875,-753.34765625
9.48828125,-756.330078125
10.6474609375,-760.08203125
10.9599609375,-762.8466796875
10.4296875,-763.3310546875
9.421875,-761.337890625
8.4990234375,-757.8583984375
8.1650390625,-754.57421875
8.6240234375,-753.029296875
9.69140625,-753.880859375
10.9111328125,-756.6103515625
11.7802734375,-759.8369140625
11.9638671875,-762.0458984375
11.400390625,-762.36328125
10.2705078125,-760.978515625
8.888671875,-759.0283203125
7.55859375,-757.97265625
6.4462890625,-758.8056640625
5.52734375,-761.5068359375
4.6474609375,-765.03515625
3.6787109375,-767.8740234375
2.673828125,-768.822265625
1.88671875,-767.6181640625
1.642578125,-765.04296875
2.103515625,-762.4736328125
3.1142578125,-761.162109375
4.2265625,-761.591796875
4.904296875,-763.287109375
4.7763671875,-765.1220703125
3.822265625,-765.9462890625
2.3740234375,-765.2041015625
0.9580078125,-763.1923828125
0.0673828125,-760.880859375
-0.037109375,-759.3876953125
0.6083984375,-759.388671875
1.732421875,-760.7802734375
2.9716796875,-762.7373046875
4.0185546875,-764.1513671875
4.693359375,-764.21484375
4.9453125,-762.8388671875
4.8134765625,-760.71484375
4.37109375,-758.9384765625
3.673828125,-758.4384765625
2.765625,-759.4755859375
1.720703125,-761.5078125
0.697265625,-763.4296875
-0.103515625,-764.10546875
-0.548828125,-762.9228515625
-0.64453125,-760.1611328125
-0.5380859375,-756.9072265625
-0.439453125,-754.57421875
-0.5537109375,-754.189453125
-0.9931640625,-755.8056640625
-1.734375,-758.4267578125
-2.61328125,-760.4775390625
-3.3681640625,-760.6494140625
-3.7373046875,-758.60546875
-3.55078125,-755.2197265625
-2.76953125,-752.1474609375
-1.4677734375,-750.9814453125
0.2138671875,-752.4228515625
2.1220703125,-755.892578125
4.1064453125,-759.826171875
6.0068359375,-762.4794921875
7.6376953125,-762.810546875
8.7939453125,-761
9.3203125,-758.27734375
9.1875,-756.2353515625
8.56640625,-755.9931640625
7.79296875,-757.6435546875
7.2431640625,-760.283203125
7.169921875,-762.5439453125
7.5830078125,-763.3642578125
8.20703125,-762.55859375
8.5458984375,-760.8828125
8.0498046875,-759.630859375
6.34765625,-759.935546875
3.4658203125,-762.1953125
-0.0703125,-765.859375
-3.39453125,-769.6533203125
-5.623046875,-772.1640625
-6.2392578125,-772.51171875
-5.3056640625,-770.7939453125
-3.423828125,-768.0546875
-1.42578125,-765.736328125
0.009765625,-764.9375
0.6279296875,-765.869140625
0.5947265625,-767.810546875
0.314453125,-769.546875
0.1416015625,-770.017578125
0.21875,-768.880859375
0.4638671875,-766.6728515625
0.669921875,-764.4931640625
0.6337890625,-763.4111328125
0.287109375,-763.921875
-0.2509765625,-765.7109375
-0.693359375,-767.8388671875
-0.69140625,-769.21484375
0.0009765625,-769.111328125
1.3779296875,-767.5
3.1484375,-765.05078125
4.8203125,-762.7900390625
5.8974609375,-761.6103515625
6.0615234375,-761.8837890625
5.2734375,-763.34375
3.7548828125,-765.29296875
1.8818359375,-766.9521484375
0.0400390625,-767.765625
-1.4775390625,-767.5712890625
-2.513671875,-766.63671875
-3.0517578125,-765.529296875
-3.1767578125,-764.8701171875
-3.0390625,-765.0615234375
-2.8271484375,-766.0947265625
-2.7392578125,-767.5712890625
-2.9306640625,-768.9189453125
-3.458984375,-769.6611328125
-4.2568359375,-769.6923828125
-5.125,-769.3330078125
-5.7763671875,-769.150390625
-5.916015625,-769.61328125
-5.35546875,-770.822265625
-4.1044921875,-772.474609375
-2.365234375,-774.037109375
-0.4248046875,-775.015625
1.4521484375,-775.1435546875
3.0830078125,-774.462890625
4.3408203125,-773.2978515625
5.109375,-772.1416015625
5.28515625,-771.4453125
4.8349609375,-771.39453125
3.8310546875,-771.7978515625
2.50390625,-772.177734375
1.2314453125,-772.0419921875
0.47265625,-771.1259765625
0.626953125,-769.59765625
1.8623046875,-767.966796875
4.01171875,-766.865234375
6.57421875,-766.6982421875
8.8740234375,-767.45703125
10.2958984375,-768.751953125
10.5166015625,-770.0146484375
9.6337890625,-770.7666015625
8.1025390625,-770.779296875
6.537109375,-770.1279296875
5.4462890625,-769.0986328125
5.0859375,-768.0517578125
5.4404296875,-767.2255859375
6.2998046875,-766.6416015625
7.3564453125,-766.150390625
8.29296875,-765.5771484375
8.849609375,-764.86328125
8.9091796875,-764.1142578125
8.5498046875,-763.541015625
8.0224609375,-763.359375
7.6708984375,-763.6904296875
7.7939453125,-764.458984375
8.5009765625,-765.3916015625
9.6474609375,-766.076171875
10.859375,-766.0927734375
11.6611328125,-765.21875
11.6337890625,-763.6259765625
10.5771484375,-761.923828125
8.58203125,-760.984375
5.98046875,-761.5205078125
3.212890625,-763.6982421875
0.6572265625,-766.986328125
-1.4970703125,-770.3251953125
-3.2548828125,-772.59375
-4.7373046875,-773.0947265625
-6.0732421875,-771.8974609375
-7.3203125,-769.8095703125
-8.4638671875,-768.0224609375
-9.4580078125,-767.576171875
-10.2314453125,-768.8701171875
-10.6787109375,-771.47265625
-10.6240234375,-774.3017578125
-9.849609375,-776.134765625
-8.216796875,-776.228515625
-5.822265625,-774.712890625
-3.068359375,-772.5615234375
-0.595703125,-771.115234375
0.95703125,-771.3857421875
1.22265625,-773.5
0.26171875,-776.6142578125
-1.4638671875,-779.318359375
-3.3193359375,-780.3759765625
-4.76953125,-779.3701171875
-5.560546875,-776.9375
-5.7236328125,-774.447265625
-5.4814453125,-773.2724609375
-5.09375,-774.03515625
-4.75390625,-776.2392578125
-4.5419921875,-778.521484375
-4.396484375,-779.3984375
-4.1484375,-778.09765625
-3.609375,-775.0234375
-2.69140625,-771.5341796875
-1.498046875,-769.208984375
-0.3232421875,-768.9921875
0.486328125,-770.74609375
0.685546875,-773.4013671875
0.2470703125,-775.6162109375
-0.6201171875,-776.490234375
-1.5859375,-775.9658203125
-2.353515625,-774.697265625
-2.787109375,-773.5537109375
-2.9345703125,-773.107421875
-3.0009765625,-773.43359375
-3.2861328125,-774.240234375
-4.109375,-775.2158203125
-5.66015625,-776.2275390625
-7.830078125,-777.330078125
-10.15234375,-778.6328125
-11.9326171875,-780.07421875
-12.5537109375,-781.3134765625
-11.7763671875,-781.7412109375
-9.74609375,-780.630859375
-6.6875,-777.3427734375
-2.4462890625,-771.3974609375
3.7744140625,-762.3857421875
13.271484375,-749.794921875
27.330078125,-733.017578125
46.5732421875,-711.654296875
70.4560546875,-686.0078125
97.1591796875,-657.5029296875
123.923828125,-628.66796875
147.7275390625,-602.564453125
166.078125,-581.8701171875
177.646484375,-568.0966796875
182.578125,-561.3310546875
182.3779296875,-560.5390625
179.390625,-564.1455078125
176.0087890625,-570.509765625
173.9072265625,-578.134765625
173.6416015625,-585.705078125
174.7412109375,-592.1484375
176.1845703125,-596.7744140625
177.0029296875,-599.439453125
176.7158203125,-600.55859375
175.484375,-600.9453125
173.955078125,-601.548828125
172.8876953125,-603.1708984375
172.73046875,-606.224609375
173.4091796875,-610.5908203125
174.3994140625,-615.6328125
175.0556640625,-620.37109375
174.947265625,-623.8095703125
174.029296875,-625.3017578125
172.576171875,-624.826171875
