timestamp,data1,data2
66486.714635,519,736
66486.714635,520,836
66486.714635,520,832
66486.714635,520,832
66486.714635,520,836
66486.714635,519,832
66486.714635,519,832
66486.714635,519,836
66486.714635,519,832
66486.714635,520,836
66486.714635,520,832
66486.714635,521,832
66486.714635,521,836
66486.714635,522,832
66486.75923,523,832
66486.75923,522,836
66486.75923,523,832
66486.75923,523,832
66486.75923,524,836
66486.75923,524,832
66486.75923,524,832
66486.75923,525,836
66486.75923,525,832
66486.75923,525,832
66486.75923,526,836
66486.75923,527,832
66486.75923,527,832
66486.75923,526,836
66486.75923,526,832
66486.75923,526,832
66486.761275,525,836
66486.761275,525,832
66486.761275,525,832
66486.761275,525,836
66486.761275,525,832
66486.761275,524,832
66486.761275,524,836
66486.761275,524,832
66486.761275,524,832
66486.761275,524,836
66486.761275,524,832
66486.761275,523,836
66486.761275,523,832
66486.761275,522,832
66486.761275,522,836
66486.761275,522,832
66486.762434,522,832
66486.762434,522,836
66486.762434,522,832
66486.762434,522,832
66486.762434,522,836
66486.762434,521,832
66486.762434,521,832
66486.762434,520,836
66486.762434,520,832
66486.762434,520,832
66486.762434,520,836
66486.762434,519,832
66486.762434,519,832
66486.762434,519,836
66486.762434,520,832
66486.762434,520,832
66486.764784,520,836
66486.764784,520,832
66486.764784,520,832
66486.764784,520,836
66486.764784,520,832
66486.764784,520,832
66486.764784,521,836
66486.764784,521,832
66486.764784,521,836
66486.764784,521,832
66486.764784,520,832
66486.764784,520,836
66486.764784,521,832
66486.764784,521,832
66486.764784,521,836
66486.764784,521,832
66486.776424,521,832
66486.776424,521,836
66486.776424,521,832
66486.776424,521,832
66486.776424,521,836
66486.776424,521,832
66486.776424,521,832
66486.776424,521,836
66486.776424,521,832
66486.776424,521,832
66486.776424,521,836
66486.776424,521,832
66486.776424,521,832
66486.776424,521,836
66486.776424,521,832
66486.776424,522,832
66486.789349,522,836
66486.789349,523,832
66486.789349,524,832
66486.789349,524,836
66486.789349,524,832
66486.789349,525,832
66486.789349,524,836
66486.789349,524,832
66486.789349,524,836
66486.789349,524,832
66486.789349,524,832
66486.789349,523,836
66486.789349,522,832
66486.789349,522,832
66486.789349,522,836
66486.789349,521,832
66486.805777,521,832
66486.805777,520,836
66486.805777,519,832
66486.805777,519,832
66486.805777,518,836
66486.805777,518,832
66486.805777,518,832
66486.805777,518,836
66486.805777,519,832
66486.805777,519,832
66486.805777,519,836
66486.805777,520,832
66486.805777,520,832
66486.805777,520,836
66486.805777,520,832
66486.805777,519,832
66486.817091,519,836
66486.817091,519,832
66486.817091,519,832
66486.817091,520,836
66486.817091,520,832
66486.817091,520,832
66486.817091,519,836
66486.817091,519,832
66486.817091,519,832
66486.817091,519,836
66486.817091,519,832
66486.817091,518,836
66486.817091,518,832
66486.817091,518,832
66486.817091,518,836
66486.817091,518,832
66486.829839,518,832
66486.829839,519,836
66486.829839,519,832
66486.829839,519,832
66486.829839,519,836
66486.829839,518,832
66486.829839,518,832
66486.829839,517,836
66486.829839,517,832
66486.829839,517,832
66486.829839,517,836
66486.829839,516,832
66486.829839,516,832
66486.829839,516,836
66486.829839,516,832
66486.829839,516,832
66486.846369,517,836
66486.846369,517,832
66486.846369,516,832
66486.846369,516,836
66486.846369,516,832
66486.846369,516,832
66486.846369,516,836
66486.846369,515,832
66486.846369,515,836
66486.846369,515,832
66486.846369,515,832
66486.846369,516,836
66486.846369,516,832
66486.846369,517,832
66486.846369,518,836
66486.846369,518,832
66486.859067,518,832
66486.859067,519,836
66486.859067,519,832
66486.859067,519,832
66486.859067,519,836
66486.859067,519,832
66486.859067,519,832
66486.859067,519,836
66486.859067,518,832
66486.859067,518,832
66486.859067,518,836
66486.859067,518,832
66486.859067,518,832
66486.859067,518,836
66486.859067,518,832
66486.859067,518,832
66486.870602,518,836
66486.870602,519,832
66486.870602,519,832
66486.870602,519,836
66486.870602,519,832
66486.870602,518,832
66486.870602,518,836
66486.870602,517,832
66486.870602,518,836
66486.870602,517,832
66486.870602,518,832
66486.870602,518,836
66486.870602,519,832
66486.870602,519,832
66486.870602,519,836
66486.870602,520,832
66486.883356,520,832
66486.883356,520,836
66486.883356,520,832
66486.883356,519,832
66486.883356,519,836
66486.883356,519,832
66486.883356,519,832
66486.883356,519,836
66486.883356,520,832
66486.883356,520,832
66486.883356,520,836
66486.883356,520,832
66486.883356,520,832
66486.883356,520,836
66486.883356,520,832
66486.883356,520,832
66486.899764,520,836
66486.899764,519,832
66486.899764,518,832
66486.899764,518,836
66486.899764,518,832
66486.899764,518,832
66486.899764,518,836
66486.899764,517,832
66486.899764,517,832
66486.899764,517,836
66486.899764,516,832
66486.899764,516,836
66486.899764,516,832
66486.899764,517,832
66486.899764,517,836
66486.899764,517,832
66486.911228,517,832
66486.911228,518,836
66486.911228,517,832
66486.911228,517,832
66486.911228,517,836
66486.911228,517,832
66486.911228,516,832
66486.911228,516,836
66486.911228,517,832
66486.911228,516,832
66486.911228,516,836
66486.911228,516,832
66486.911228,516,832
66486.911228,516,836
66486.911228,516,832
66486.911228,516,832
66486.92407,516,836
66486.92407,516,832
66486.92407,516,832
66486.92407,516,836
66486.92407,516,832
66486.92407,516,832
66486.92407,516,836
66486.92407,515,832
66486.92407,514,836
66486.92407,515,832
66486.92407,515,832
66486.92407,515,836
66486.92407,516,832
66486.92407,516,832
66486.92407,516,836
66486.92407,516,832
66486.935744,516,832
66486.935744,516,836
66486.935744,515,832
66486.935744,515,832
66486.935744,515,836
66486.935744,515,832
66486.935744,515,832
66486.935744,515,836
66486.935744,516,832
66486.935744,516,832
66486.935744,517,836
66486.935744,517,832
66486.935744,517,832
66486.935744,518,836
66486.935744,518,832
66486.935744,518,832
66486.948495,518,836
66486.948495,518,832
66486.948495,519,832
66486.948495,519,836
66486.948495,519,832
66486.948495,519,832
66486.948495,519,836
66486.948495,520,832
66486.948495,521,832
66486.948495,521,836
66486.948495,522,832
66486.948495,522,836
66486.948495,522,832
66486.948495,522,832
66486.948495,522,836
66486.948495,522,832
66486.964899,522,832
66486.964899,521,836
66486.964899,522,832
66486.964899,523,832
66486.964899,523,836
66486.964899,523,832
66486.964899,523,832
66486.964899,523,836
66486.964899,522,832
66486.964899,522,832
66486.964899,522,836
66486.964899,522,832
66486.964899,522,832
66486.964899,521,836
66486.964899,521,832
66486.964899,520,832
66486.97757,519,836
66486.97757,519,832
66486.97757,520,832
66486.97757,519,836
66486.97757,518,832
66486.97757,518,832
66486.97757,518,836
66486.97757,518,832
66486.97757,518,836
66486.97757,519,832
66486.97757,518,832
66486.97757,519,836
66486.97757,519,832
66486.97757,519,832
66486.97757,519,836
66486.97757,519,832
66486.990076,519,832
66486.990076,518,836
66486.990076,518,832
66486.990076,517,832
66486.990076,517,836
66486.990076,516,832
66486.990076,516,832
66486.990076,515,836
66486.990076,516,832
66486.990076,516,832
66486.990076,516,836
66486.990076,515,832
66486.990076,515,832
66486.990076,514,836
66486.990076,515,832
66486.990076,515,832
66487.001501,515,836
66487.001501,515,832
66487.001501,515,832
66487.001501,515,836
66487.001501,515,832
66487.001501,515,832
66487.001501,515,836
66487.001501,514,832
66487.001501,514,832
66487.001501,513,836
66487.001501,513,832
66487.001501,513,836
66487.001501,513,832
66487.001501,512,832
66487.001501,512,836
66487.001501,512,832
66487.018019,511,832
66487.018019,511,836
66487.018019,512,832
66487.018019,512,832
66487.018019,512,836
66487.018019,512,832
66487.018019,512,832
66487.018019,513,836
66487.018019,513,832
66487.018019,513,832
66487.018019,514,836
66487.018019,514,832
66487.018019,515,832
66487.018019,515,836
66487.018019,515,844
66487.018019,515,820
66487.030562,515,836
66487.030562,515,832
66487.030562,515,832
66487.030562,515,836
66487.030562,515,832
66487.030562,516,832
66487.030562,516,836
66487.030562,516,832
66487.030562,516,832
66487.030562,516,836
66487.030562,517,832
66487.030562,517,836
66487.030562,517,832
66487.030562,517,832
66487.030562,517,836
66487.030562,517,832
66487.043223,517,832
66487.043223,516,836
66487.043223,516,832
66487.043223,515,832
66487.043223,515,836
66487.043223,515,832
66487.043223,515,832
66487.043223,514,836
66487.043223,514,832
66487.043223,514,832
66487.043223,514,836
66487.043223,514,832
66487.043223,514,832
66487.043223,514,836
66487.043223,514,832
66487.043223,514,832
66487.054664,514,836
66487.054664,514,832
66487.054664,515,832
66487.054664,516,836
66487.054664,516,832
66487.054664,516,832
66487.054664,516,836
66487.054664,516,832
66487.054664,516,832
66487.054664,516,836
66487.054664,516,832
66487.054664,516,836
66487.054664,516,832
66487.054664,516,832
66487.054664,516,836
66487.054664,516,832
66487.071119,516,832
66487.071119,516,836
66487.071119,516,832
66487.071119,516,832
66487.071119,516,836
66487.071119,515,832
66487.071119,515,832
66487.071119,515,836
66487.071119,514,832
66487.071119,514,832
66487.071119,514,836
66487.071119,513,832
66487.071119,513,832
66487.071119,513,836
66487.071119,513,832
66487.071119,513,832
66487.083915,514,836
66487.083915,514,832
66487.083915,514,832
66487.083915,514,836
66487.083915,514,832
66487.083915,513,832
66487.083915,513,836
66487.083915,513,832
66487.083915,512,832
66487.083915,512,836
66487.083915,510,832
66487.083915,505,836
66487.083915,505,832
66487.083915,506,832
66487.083915,507,836
66487.083915,507,832
66487.096192,507,832
66487.096192,508,836
66487.096192,508,832
66487.096192,507,832
66487.096192,507,836
66487.096192,507,832
66487.096192,507,832
66487.096192,507,836
66487.096192,507,832
66487.096192,507,832
66487.096192,507,836
66487.096192,507,832
66487.096192,508,832
66487.096192,508,836
66487.096192,507,832
66487.096192,507,832
66487.108904,508,836
66487.108904,508,832
66487.108904,509,832
66487.108904,510,836
66487.108904,510,832
66487.108904,511,832
66487.108904,510,836
66487.108904,511,832
66487.108904,511,836
66487.108904,511,832
66487.108904,511,832
66487.108904,511,836
66487.108904,512,832
66487.108904,511,832
66487.108904,512,836
66487.108904,512,832
66487.124149,512,832
66487.124149,512,836
66487.124149,512,832
66487.124149,512,832
66487.124149,513,836
66487.124149,513,832
66487.124149,514,832
66487.124149,514,836
66487.124149,515,832
66487.124149,515,832
66487.124149,515,836
66487.124149,515,832
66487.124149,515,832
66487.124149,515,836
66487.124149,515,832
66487.124149,515,832
66487.136858,515,836
66487.136858,515,832
66487.136858,515,832
66487.136858,515,836
66487.136858,515,832
66487.136858,516,832
66487.136858,517,836
66487.136858,517,832
66487.136858,517,836
66487.136858,517,832
66487.136858,517,832
66487.136858,517,836
66487.136858,517,832
66487.136858,518,832
66487.136858,518,836
66487.136858,519,832
66487.14947,519,832
66487.14947,519,836
66487.14947,519,832
66487.14947,519,832
66487.14947,520,836
66487.14947,520,832
66487.14947,520,832
66487.14947,519,836
66487.14947,519,832
66487.14947,519,832
66487.14947,519,836
66487.14947,519,832
66487.14947,519,832
66487.14947,519,836
66487.14947,519,832
66487.14947,519,832
66487.162159,518,836
66487.162159,518,832
66487.162159,517,832
66487.162159,517,836
66487.162159,517,832
66487.162159,517,832
66487.162159,517,836
66487.162159,517,832
66487.162159,517,836
66487.162159,517,832
66487.162159,516,832
66487.162159,516,836
66487.162159,515,832
66487.162159,515,832
66487.162159,515,836
66487.162159,515,832
66487.178723,515,832
66487.178723,515,836
66487.178723,514,832
66487.178723,514,832
66487.178723,513,836
66487.178723,513,832
66487.178723,514,832
66487.178723,514,836
66487.178723,514,832
66487.178723,514,832
66487.178723,514,836
66487.178723,515,832
66487.178723,515,832
66487.178723,515,836
66487.178723,515,832
66487.178723,515,832
66487.190109,515,836
66487.190109,515,832
66487.190109,515,832
66487.190109,515,836
66487.190109,516,832
66487.190109,516,832
66487.190109,515,836
66487.190109,516,832
66487.190109,515,832
66487.190109,515,836
66487.190109,516,832
66487.190109,517,836
66487.190109,517,832
66487.190109,517,832
66487.190109,517,836
66487.190109,518,832
66487.20284099999,518,832
66487.20284099999,519,836
66487.20284099999,520,832
66487.20284099999,520,832
66487.20284099999,520,836
66487.20284099999,520,832
66487.20284099999,521,832
66487.20284099999,521,836
66487.20284099999,521,832
66487.20284099999,521,832
66487.20284099999,521,836
66487.20284099999,521,832
66487.20284099999,522,832
66487.20284099999,522,836
66487.20284099999,522,832
66487.20284099999,522,832
66487.2192,523,836
66487.2192,523,832
66487.2192,523,832
66487.2192,523,836
66487.2192,523,832
66487.2192,523,832
66487.2192,523,836
66487.2192,524,832
66487.2192,524,832
66487.2192,524,836
66487.2192,524,832
66487.2192,525,836
66487.2192,525,832
66487.2192,524,832
66487.2192,524,836
66487.2192,524,832
66487.231802,524,832
66487.231802,525,836
66487.231802,525,832
66487.231802,525,832
66487.231802,525,836
66487.231802,525,832
66487.231802,525,832
66487.231802,525,836
66487.231802,525,832
66487.231802,525,832
66487.231802,525,836
66487.231802,525,832
66487.231802,525,832
66487.231802,524,836
66487.231802,524,832
66487.231802,524,832
66487.243025,525,836
66487.243025,525,832
66487.243025,525,832
66487.243025,525,836
66487.243025,525,832
66487.243025,525,832
66487.243025,524,836
66487.243025,520,832
66487.243025,520,836
66487.243025,521,832
66487.243025,522,832
66487.243025,523,836
66487.243025,523,832
66487.243025,524,832
66487.243025,524,836
66487.243025,525,832
66487.255701,526,832
66487.255701,526,836
66487.255701,526,832
66487.255701,526,832
66487.255701,526,836
66487.255701,526,832
66487.255701,526,832
66487.255701,527,836
66487.255701,527,832
66487.255701,528,832
66487.255701,528,836
66487.255701,529,832
66487.255701,530,832
66487.255701,531,836
66487.255701,533,832
66487.255701,535,832
66487.272227,536,836
66487.272227,538,832
66487.272227,540,832
66487.272227,540,836
66487.272227,541,832
66487.272227,541,832
66487.272227,541,836
66487.272227,542,832
66487.272227,542,836
66487.272227,543,832
66487.272227,543,832
66487.272227,544,836
66487.272227,545,832
66487.272227,546,832
66487.272227,546,836
66487.272227,547,832
66487.28475,548,832
66487.28475,550,836
66487.28475,552,832
66487.28475,555,832
66487.28475,558,836
66487.28475,561,832
66487.28475,563,832
66487.28475,565,836
66487.28475,568,832
66487.28475,571,832
66487.28475,573,836
66487.28475,575,832
66487.28475,577,832
66487.28475,578,836
66487.28475,580,832
66487.28475,583,832
66487.297587,586,836
66487.297587,590,832
66487.297587,592,832
66487.297587,595,836
66487.297587,597,832
66487.297587,599,832
66487.297587,600,836
66487.297587,601,832
66487.297587,602,832
66487.297587,603,836
66487.297587,604,832
66487.297587,606,836
66487.297587,606,832
66487.297587,608,832
66487.297587,609,836
66487.297587,610,832
66487.312725,612,832
66487.312725,613,836
66487.312725,614,832
66487.312725,615,832
66487.312725,616,836
66487.312725,616,832
66487.312725,617,832
66487.312725,618,836
66487.312725,618,832
66487.312725,618,832
66487.312725,618,836
66487.312725,618,832
66487.312725,618,832
66487.312725,617,836
66487.312725,617,832
66487.312725,617,832
66487.325134,616,836
66487.325134,616,832
66487.325134,616,832
66487.325134,616,836
66487.325134,617,832
66487.325134,616,832
66487.325134,616,836
66487.325134,616,832
66487.325134,616,836
66487.325134,615,832
66487.325134,614,832
66487.325134,614,836
66487.325134,614,832
66487.325134,613,832
66487.325134,612,836
66487.325134,610,832
66487.337579,609,832
66487.337579,608,836
66487.337579,607,832
66487.337579,604,832
66487.337579,603,836
66487.337579,601,832
66487.337579,600,832
66487.337579,599,836
66487.337579,599,832
66487.337579,597,832
66487.337579,597,836
66487.337579,596,832
66487.337579,595,832
66487.337579,594,836
66487.337579,592,832
66487.337579,591,832
66487.350292,590,836
66487.350292,590,832
66487.350292,588,832
66487.350292,588,836
66487.350292,588,832
66487.350292,587,832
66487.350292,587,836
66487.350292,587,832
66487.350292,586,832
66487.350292,585,836
66487.350292,585,832
66487.350292,584,836
66487.350292,584,832
66487.350292,584,832
66487.350292,584,836
66487.350292,583,832
66487.366847,582,832
66487.366847,581,836
66487.366847,581,832
66487.366847,581,832
66487.366847,580,836
66487.366847,580,832
66487.366847,580,832
66487.366847,581,836
66487.366847,581,832
66487.366847,581,832
66487.366847,583,836
66487.366847,584,832
66487.366847,586,832
66487.366847,588,836
66487.366847,590,832
66487.366847,590,832
66487.378235,591,836
66487.378235,590,844
66487.378235,590,820
66487.378235,589,836
66487.378235,589,832
66487.378235,587,832
66487.378235,587,836
66487.378235,588,832
66487.378235,588,836
66487.378235,588,832
66487.378235,589,832
66487.378235,590,836
66487.378235,592,832
66487.378235,593,832
66487.378235,594,836
66487.378235,596,832
66487.390831,598,832
66487.390831,601,836
66487.390831,603,832
66487.390831,605,832
66487.390831,607,836
66487.390831,608,832
66487.390831,610,832
66487.390831,613,836
66487.390831,614,832
66487.390831,615,832
66487.390831,617,836
66487.390831,618,832
66487.390831,620,832
66487.390831,621,836
66487.390831,623,832
66487.390831,625,832
66487.40347,628,836
66487.40347,628,832
66487.40347,629,832
66487.40347,630,836
66487.40347,631,832
66487.40347,632,832
66487.40347,632,836
66487.40347,633,832
66487.40347,633,832
66487.40347,634,836
66487.40347,634,832
66487.40347,635,836
66487.40347,635,832
66487.40347,636,832
66487.40347,637,836
66487.40347,637,832
66487.419899,637,832
66487.419899,638,836
66487.419899,638,832
66487.419899,638,832
66487.419899,639,836
66487.419899,639,832
66487.419899,639,832
66487.419899,638,836
66487.419899,637,832
66487.419899,636,832
66487.419899,635,836
66487.419899,634,832
66487.419899,633,832
66487.419899,632,836
66487.419899,631,832
66487.419899,629,832
66487.431233,628,836
66487.431233,626,832
66487.431233,625,832
66487.431233,624,836
66487.431233,623,832
66487.431233,621,832
66487.431233,619,836
66487.431233,618,832
66487.431233,616,836
66487.431233,615,832
66487.431233,614,832
66487.431233,613,836
66487.431233,612,832
66487.431233,611,832
66487.431233,610,836
66487.431233,609,832
66487.443876,608,832
66487.443876,607,836
66487.443876,607,832
66487.443876,606,832
66487.443876,605,836
66487.443876,605,832
66487.443876,604,832
66487.443876,604,836
66487.443876,604,832
66487.443876,604,832
66487.443876,605,836
66487.443876,607,832
66487.443876,608,832
66487.443876,610,836
66487.443876,611,832
66487.443876,612,832
66487.456517,613,836
66487.456517,613,832
66487.456517,612,832
66487.456517,612,836
66487.456517,612,832
66487.456517,612,832
66487.456517,613,836
66487.456517,613,832
66487.456517,612,832
66487.456517,611,836
66487.456517,611,832
66487.456517,612,836
66487.456517,612,832
66487.456517,612,832
66487.456517,612,836
66487.456517,615,832
66487.472786,618,832
66487.472786,621,836
66487.472786,624,832
66487.472786,628,832
66487.472786,632,836
66487.472786,636,832
66487.472786,639,832
66487.472786,641,836
66487.472786,644,832
66487.472786,646,832
66487.472786,648,836
66487.472786,649,832
66487.472786,651,832
66487.472786,653,836
66487.472786,656,832
66487.472786,659,832
66487.485467,662,836
66487.485467,665,832
66487.485467,668,832
66487.485467,672,836
66487.485467,675,832
66487.485467,679,832
66487.485467,681,836
66487.485467,684,832
66487.485467,688,836
66487.485467,691,832
66487.485467,694,832
66487.485467,697,836
66487.485467,699,832
66487.485467,701,832
66487.485467,701,836
66487.485467,702,832
66487.496831,703,832
66487.496831,705,836
66487.496831,707,832
66487.496831,709,832
66487.496831,712,836
66487.496831,714,832
66487.496831,716,832
66487.496831,717,836
66487.496831,717,832
66487.496831,716,832
66487.496831,715,836
66487.496831,714,832
66487.496831,714,832
66487.496831,714,836
66487.496831,713,832
66487.496831,713,832
66487.509468,713,836
66487.509468,713,832
66487.509468,712,832
66487.509468,711,836
66487.509468,709,832
66487.509468,709,832
66487.509468,708,836
66487.509468,706,832
66487.509468,704,832
66487.509468,702,836
66487.509468,700,832
66487.509468,698,836
66487.509468,697,832
66487.509468,695,832
66487.509468,693,836
66487.509468,691,832
66487.522001,689,832
66487.522001,688,836
66487.522001,686,832
66487.522001,685,832
66487.522001,683,836
66487.522001,681,832
66487.522001,679,832
66487.522001,677,836
66487.522001,674,832
66487.522001,672,832
66487.522001,671,836
66487.522001,669,832
66487.522001,667,832
66487.522001,665,836
66487.522001,664,832
66487.522001,663,832
66487.538473,661,836
66487.538473,660,832
66487.538473,657,832
66487.538473,655,836
66487.538473,654,832
66487.538473,650,832
66487.538473,647,836
66487.538473,645,832
66487.538473,644,832
66487.538473,643,836
66487.538473,641,832
66487.538473,640,836
66487.538473,638,832
66487.538473,637,832
66487.538473,635,836
66487.538473,634,832
66487.54990299999,635,832
66487.54990299999,635,836
66487.54990299999,636,832
66487.54990299999,636,832
66487.54990299999,635,836
66487.54990299999,634,832
66487.54990299999,633,832
66487.54990299999,631,836
66487.54990299999,630,832
66487.54990299999,628,832
66487.54990299999,628,836
66487.54990299999,628,832
66487.54990299999,629,832
66487.54990299999,629,836
66487.54990299999,629,832
66487.54990299999,630,832
66487.562572,630,836
66487.562572,630,832
66487.562572,629,832
66487.562572,628,836
66487.562572,626,832
66487.562572,624,832
66487.562572,622,836
66487.562572,620,832
66487.562572,619,848
66487.562572,619,820
66487.562572,618,832
66487.562572,618,836
66487.562572,617,832
66487.562572,616,832
66487.562572,615,836
66487.562572,612,832
66487.575129,610,832
66487.575129,608,836
66487.575129,608,832
66487.575129,607,832
66487.575129,606,836
66487.575129,607,832
66487.575129,606,832
66487.575129,607,836
66487.575129,607,832
66487.575129,606,832
66487.575129,605,836
66487.575129,604,832
66487.575129,602,832
66487.575129,601,836
66487.575129,600,832
66487.575129,600,832
66487.591662,598,836
66487.591662,598,832
66487.591662,597,832
66487.591662,597,836
66487.591662,596,832
66487.591662,595,832
66487.591662,594,836
66487.591662,593,832
66487.591662,593,836
66487.591662,592,832
66487.591662,591,832
66487.591662,590,836
66487.591662,588,832
66487.591662,587,832
66487.591662,584,836
66487.591662,583,832
66487.604156,582,832
66487.604156,581,836
66487.604156,579,832
66487.604156,578,832
66487.604156,578,836
66487.604156,577,832
66487.604156,575,832
66487.604156,574,836
66487.604156,573,832
66487.604156,572,832
66487.604156,572,836
66487.604156,571,832
66487.604156,571,832
66487.604156,570,836
66487.604156,569,832
66487.604156,567,832
66487.617334,566,836
66487.617334,565,832
66487.617334,564,832
66487.617334,563,836
66487.617334,562,832
66487.617334,562,832
66487.617334,561,836
66487.617334,561,832
66487.617334,561,836
66487.617334,561,832
66487.617334,560,832
66487.617334,559,836
66487.617334,557,832
66487.617334,556,832
66487.617334,555,836
66487.617334,555,832
66487.628787,554,832
66487.628787,554,836
66487.628787,552,832
66487.628787,551,832
66487.628787,551,836
66487.628787,550,832
66487.628787,548,832
66487.628787,548,836
66487.628787,547,832
66487.628787,547,832
66487.628787,546,836
66487.628787,546,832
66487.628787,545,832
66487.628787,545,836
66487.628787,544,832
66487.628787,543,832
66487.64520099999,543,836
66487.64520099999,542,832
66487.64520099999,541,832
66487.64520099999,540,836
66487.64520099999,539,832
66487.64520099999,538,832
66487.64520099999,538,836
66487.64520099999,537,832
66487.64520099999,537,836
66487.64520099999,537,832
66487.64520099999,537,832
66487.64520099999,536,836
66487.64520099999,535,832
66487.64520099999,535,832
66487.64520099999,534,836
66487.64520099999,533,832
66487.65661,532,832
66487.65661,532,836
66487.65661,532,832
66487.65661,531,832
66487.65661,531,836
66487.65661,531,832
66487.65661,530,832
66487.65661,530,836
66487.65661,529,832
66487.65661,529,832
66487.65661,529,836
66487.65661,528,832
66487.65661,527,832
66487.65661,527,836
66487.65661,527,832
66487.65661,526,832
66487.669313,526,836
66487.669313,526,832
66487.669313,526,832
66487.669313,526,836
66487.669313,526,832
66487.669313,526,832
66487.669313,526,836
66487.669313,526,832
66487.669313,526,836
66487.669313,527,832
66487.669313,526,832
66487.669313,526,836
66487.669313,525,832
66487.669313,525,832
66487.669313,524,836
66487.669313,523,832
66487.685799,523,832
66487.685799,522,836
66487.685799,521,832
66487.685799,520,832
66487.685799,519,836
66487.685799,519,832
66487.685799,518,832
66487.685799,517,836
66487.685799,518,832
66487.685799,518,832
66487.685799,517,836
66487.685799,517,832
66487.685799,516,832
66487.685799,517,836
66487.685799,516,832
66487.685799,516,832
66487.698548,516,836
66487.698548,516,832
66487.698548,517,832
66487.698548,517,836
66487.698548,517,832
66487.698548,518,832
66487.698548,519,836
66487.698548,519,832
66487.698548,519,832
66487.698548,519,836
66487.698548,519,832
66487.698548,520,836
66487.698548,521,832
66487.698548,521,832
66487.698548,521,836
66487.698548,521,832
66487.710408,521,832
66487.710408,520,836
66487.710408,520,832
66487.710408,519,832
66487.710408,518,836
66487.710408,517,832
66487.710408,517,832
66487.710408,516,836
66487.710408,516,832
66487.710408,515,832
66487.710408,516,836
66487.710408,516,832
66487.710408,515,832
66487.710408,515,836
66487.710408,515,832
66487.710408,515,832
66487.722929,516,836
66487.722929,517,832
66487.722929,516,832
66487.722929,517,836
66487.722929,517,844
66487.722929,518,820
66487.722929,517,836
66487.722929,515,832
66487.722929,516,832
66487.722929,517,836
66487.722929,517,832
66487.722929,517,836
66487.722929,516,832
66487.722929,516,832
66487.722929,516,836
66487.722929,517,832
66487.739193,517,832
66487.739193,517,836
66487.739193,516,832
66487.739193,516,832
66487.739193,516,836
66487.739193,516,832
66487.739193,516,832
66487.739193,516,836
66487.739193,516,832
66487.739193,517,832
66487.739193,516,836
66487.739193,516,832
66487.739193,517,832
66487.739193,516,836
66487.739193,516,832
66487.739193,517,832
66487.752101,516,836
66487.752101,516,832
66487.752101,516,832
66487.752101,515,836
66487.752101,516,832
66487.752101,516,832
66487.752101,515,836
66487.752101,515,832
66487.752101,515,836
66487.752101,514,832
66487.752101,514,832
66487.752101,514,836
66487.752101,514,832
66487.752101,513,832
66487.752101,513,836
66487.752101,513,832
66487.763379,513,832
66487.763379,514,836
66487.763379,514,832
66487.763379,513,832
66487.763379,513,836
66487.763379,513,832
66487.763379,512,832
66487.763379,512,836
66487.763379,511,832
66487.763379,510,832
66487.763379,509,836
66487.763379,509,832
66487.763379,508,832
66487.763379,508,836
66487.763379,507,832
66487.763379,507,832
66487.779792,506,836
66487.779792,504,832
66487.779792,502,832
66487.779792,500,836
66487.779792,497,832
66487.779792,496,832
66487.779792,496,836
66487.779792,496,832
66487.779792,497,836
66487.779792,498,832
66487.779792,498,832
66487.779792,499,836
66487.779792,500,832
66487.779792,501,832
66487.779792,501,836
66487.779792,502,832
66487.79249800001,503,832
66487.79249800001,502,836
66487.79249800001,503,832
66487.79249800001,503,832
66487.79249800001,504,836
66487.79249800001,504,832
66487.79249800001,504,832
66487.79249800001,503,836
66487.79249800001,503,832
66487.79249800001,502,832
66487.79249800001,501,836
66487.79249800001,501,832
66487.79249800001,502,832
66487.79249800001,502,836
66487.79249800001,501,832
66487.79249800001,501,832
66487.80516,500,836
66487.80516,500,832
66487.80516,499,832
66487.80516,499,836
66487.80516,499,832
66487.80516,500,832
66487.80516,500,836
66487.80516,501,832
66487.80516,500,836
66487.80516,500,832
66487.80516,500,832
66487.80516,500,836
66487.80516,499,832
66487.80516,498,832
66487.80516,497,836
66487.80516,498,832
66487.822547,498,832
66487.822547,498,836
66487.822547,500,832
66487.822547,500,832
66487.822547,498,836
66487.822547,496,832
66487.822547,494,832
66487.822547,492,836
66487.822547,491,832
66487.822547,491,832
66487.822547,492,836
66487.822547,492,832
66487.822547,494,832
66487.822547,496,836
66487.822547,497,832
66487.822547,497,832
66487.833516,498,836
66487.833516,498,832
66487.833516,499,832
66487.833516,500,836
66487.833516,500,832
66487.833516,499,832
66487.833516,499,836
66487.833516,500,832
66487.833516,500,832
66487.833516,501,836
66487.833516,502,832
66487.833516,503,836
66487.833516,504,832
66487.833516,505,832
66487.833516,505,836
66487.833516,505,832
66487.846024,504,832
66487.846024,504,836
66487.846024,503,832
66487.846024,503,832
66487.846024,502,836
66487.846024,502,832
66487.846024,502,832
66487.846024,501,836
66487.846024,500,832
66487.846024,500,832
66487.846024,499,836
66487.846024,500,832
66487.846024,500,832
66487.846024,499,836
66487.846024,499,832
66487.846024,498,832
66487.857409,497,836
66487.857409,498,832
66487.857409,498,832
66487.857409,499,836
66487.857409,500,832
66487.857409,500,832
66487.857409,499,836
66487.857409,498,832
66487.857409,498,836
66487.857409,498,832
66487.857409,499,832
66487.857409,500,836
66487.857409,501,832
66487.857409,502,832
66487.857409,503,836
66487.857409,503,832
66487.870135,502,832
66487.870135,502,836
66487.870135,500,832
66487.870135,499,832
66487.870135,500,836
66487.870135,501,832
66487.870135,502,832
66487.870135,503,836
66487.870135,505,832
66487.870135,505,832
66487.870135,504,836
66487.870135,502,832
66487.870135,501,832
66487.870135,500,836
66487.870135,499,832
66487.870135,499,832
66487.886881,498,836
66487.886881,498,832
66487.886881,499,832
66487.886881,499,836
66487.886881,501,832
66487.886881,502,832
66487.886881,503,836
66487.886881,503,832
66487.886881,503,832
66487.886881,502,836
66487.886881,502,832
66487.886881,502,836
66487.886881,501,832
66487.886881,500,832
66487.886881,500,836
66487.886881,500,832
66487.898382,500,832
66487.898382,500,836
66487.898382,500,832
66487.898382,500,832
66487.898382,501,836
66487.898382,501,832
66487.898382,503,832
66487.898382,503,836
66487.898382,503,832
66487.898382,503,832
66487.898382,503,836
66487.898382,503,832
66487.898382,503,832
66487.898382,502,836
66487.898382,501,832
66487.898382,501,832
66487.911078,501,836
66487.911078,501,832
66487.911078,501,832
66487.911078,500,836
66487.911078,498,832
66487.911078,496,832
66487.911078,496,836
66487.911078,496,832
66487.911078,495,832
66487.911078,494,836
66487.911078,495,832
66487.911078,495,848
66487.911078,496,820
66487.911078,497,832
66487.911078,499,836
66487.911078,501,832
66487.923706,501,832
66487.923706,501,836
66487.923706,501,832
66487.923706,501,832
66487.923706,501,836
66487.923706,501,832
66487.923706,502,832
66487.923706,502,836
66487.923706,502,832
66487.923706,501,832
66487.923706,502,836
66487.923706,502,832
66487.923706,502,832
66487.923706,502,836
66487.923706,503,832
66487.923706,503,832
66487.940196,503,836
66487.940196,503,832
66487.940196,503,832
66487.940196,503,836
66487.940196,503,832
66487.940196,503,832
66487.940196,502,836
66487.940196,501,832
66487.940196,502,836
66487.940196,501,832
66487.940196,502,832
66487.940196,502,836
66487.940196,502,832
66487.940196,502,832
66487.940196,502,836
66487.940196,502,832
66487.95149800001,502,832
66487.95149800001,502,836
66487.95149800001,502,832
66487.95149800001,501,832
66487.95149800001,500,836
66487.95149800001,499,832
66487.95149800001,498,832
66487.95149800001,497,836
66487.95149800001,497,832
66487.95149800001,497,832
66487.95149800001,497,836
66487.95149800001,498,832
66487.95149800001,499,832
66487.95149800001,501,836
66487.95149800001,502,832
66487.95149800001,502,832
66487.964068,502,836
66487.964068,503,832
66487.964068,504,832
66487.964068,505,836
66487.964068,505,832
66487.964068,506,832
66487.964068,506,836
66487.964068,506,832
66487.964068,506,832
66487.964068,506,836
66487.964068,506,832
66487.964068,506,836
66487.964068,505,832
66487.964068,504,832
66487.964068,504,836
66487.964068,504,832
66487.976718,504,832
66487.976718,504,836
66487.976718,504,832
66487.976718,504,832
66487.976718,505,836
66487.976718,505,832
66487.976718,505,832
66487.976718,506,836
66487.976718,506,832
66487.976718,506,832
66487.976718,505,836
66487.976718,505,832
66487.976718,505,832
66487.976718,506,836
66487.976718,507,832
66487.976718,507,832
66487.989426,507,836
66487.989426,507,832
66487.989426,508,832
66487.989426,508,836
66487.989426,508,832
66487.989426,509,832
66487.989426,509,836
66487.989426,509,832
66487.989426,510,832
66487.989426,511,836
66487.989426,512,832
66487.989426,512,836
66487.989426,512,832
66487.989426,512,832
66487.989426,513,836
66487.989426,513,832
66488.004685,514,832
66488.004685,514,836
66488.004685,513,832
66488.004685,513,832
66488.004685,513,836
66488.004685,513,832
66488.004685,512,832
66488.004685,511,836
66488.004685,511,832
66488.004685,511,832
66488.004685,511,836
66488.004685,511,832
66488.004685,512,832
66488.004685,512,836
66488.004685,513,832
66488.004685,514,832
66488.017395,514,836
66488.017395,514,832
66488.017395,514,832
66488.017395,513,836
66488.017395,513,832
66488.017395,513,832
66488.017395,512,836
66488.017395,512,832
66488.017395,511,832
66488.017395,511,836
66488.017395,511,832
66488.017395,511,836
66488.017395,511,832
66488.017395,511,832
66488.017395,511,836
66488.017395,510,832
66488.030082,509,832
66488.030082,509,836
66488.030082,508,832
66488.030082,508,832
66488.030082,508,836
66488.030082,508,832
66488.030082,508,832
66488.030082,508,836
66488.030082,508,832
66488.030082,508,832
66488.030082,508,836
66488.030082,509,832
66488.030082,510,832
66488.030082,510,836
66488.030082,510,832
66488.030082,511,832
66488.04201399999,511,836
66488.04201399999,512,832
66488.04201399999,512,832
66488.04201399999,512,836
66488.04201399999,512,832
66488.04201399999,513,832
66488.04201399999,507,836
66488.04201399999,505,832
66488.04201399999,507,832
66488.04201399999,508,836
66488.04201399999,509,832
66488.04201399999,510,836
66488.04201399999,511,832
66488.04201399999,512,832
66488.04201399999,512,836
66488.04201399999,512,832
66488.058512,513,832
66488.058512,513,836
66488.058512,514,832
66488.058512,514,832
66488.058512,514,836
66488.058512,514,832
66488.058512,514,832
66488.058512,513,836
66488.058512,513,832
66488.058512,512,832
66488.058512,512,836
66488.058512,512,832
66488.058512,512,832
66488.058512,512,836
66488.058512,512,832
66488.058512,513,832
66488.07119,513,836
66488.07119,514,832
66488.07119,514,832
66488.07119,514,836
66488.07119,514,832
66488.07119,513,832
66488.07119,512,836
66488.07119,511,836
66488.07119,512,832
66488.07119,512,832
66488.07119,512,832
66488.07119,513,836
66488.07119,513,832
66488.07119,514,832
66488.07119,514,836
66488.07119,514,832
66488.082809,514,832
66488.082809,513,836
66488.082809,513,832
66488.082809,513,832
66488.082809,514,836
66488.082809,514,832
66488.082809,515,832
66488.082809,515,836
66488.082809,515,832
66488.082809,516,832
66488.082809,516,836
66488.082809,517,832
66488.082809,516,832
66488.082809,517,836
66488.082809,517,832
66488.082809,517,832
66488.095442,518,836
66488.095442,518,832
66488.095442,518,832
66488.095442,518,836
66488.095442,518,832
66488.095442,517,832
66488.095442,517,836
66488.095442,518,832
66488.095442,518,832
66488.095442,519,836
66488.095442,520,832
66488.095442,519,836
66488.095442,520,832
66488.095442,520,832
66488.095442,520,836
66488.095442,520,832
66488.111958,520,832
66488.111958,520,836
66488.111958,519,832
66488.111958,520,832
66488.111958,520,836
66488.111958,520,832
66488.111958,520,832
66488.111958,520,836
66488.111958,521,832
66488.111958,521,832
66488.111958,522,836
66488.111958,522,832
66488.111958,522,832
66488.111958,523,836
66488.111958,523,832
66488.111958,523,832
66488.124637,523,836
66488.124637,522,832
66488.124637,521,832
66488.124637,520,836
66488.124637,520,832
66488.124637,519,832
66488.124637,518,836
66488.124637,518,832
66488.124637,517,836
66488.124637,517,832
66488.124637,518,832
66488.124637,518,836
66488.124637,518,832
66488.124637,518,832
66488.124637,517,836
66488.124637,517,832
66488.136649,517,832
66488.136649,518,836
66488.136649,518,832
66488.136649,518,832
66488.136649,519,836
66488.136649,519,832
66488.136649,519,832
66488.136649,520,836
66488.136649,521,832
66488.136649,521,832
66488.136649,521,836
66488.136649,522,832
66488.136649,522,832
66488.136649,523,836
66488.136649,523,832
66488.136649,523,832
66488.15267899999,524,836
66488.15267899999,524,832
66488.15267899999,525,832
66488.15267899999,526,836
66488.15267899999,526,832
66488.15267899999,527,832
66488.15267899999,527,836
66488.15267899999,526,832
66488.15267899999,526,832
66488.15267899999,526,836
66488.15267899999,527,832
66488.15267899999,527,836
66488.15267899999,528,832
66488.15267899999,528,832
66488.15267899999,528,836
66488.15267899999,529,832
66488.165276,530,832
66488.165276,530,836
66488.165276,530,832
66488.165276,530,832
66488.165276,529,836
66488.165276,529,832
66488.165276,530,832
66488.165276,531,836
66488.165276,531,832
66488.165276,531,832
66488.165276,530,836
66488.165276,529,832
66488.165276,528,832
66488.165276,527,836
66488.165276,525,832
66488.165276,524,832
66488.177958,524,836
66488.177958,523,832
66488.177958,522,832
66488.177958,522,836
66488.177958,522,832
66488.177958,521,832
66488.177958,521,836
66488.177958,521,832
66488.177958,521,836
66488.177958,521,832
66488.177958,521,832
66488.177958,521,836
66488.177958,522,832
66488.177958,524,832
66488.177958,525,836
66488.177958,526,832
66488.18952,526,832
66488.18952,526,836
66488.18952,526,832
66488.18952,524,832
66488.18952,521,836
66488.18952,519,832
66488.18952,517,832
66488.18952,515,836
66488.18952,514,832
66488.18952,512,832
66488.18952,512,836
66488.18952,511,832
66488.18952,510,832
66488.18952,510,836
66488.18952,509,832
66488.18952,509,832
66488.206274,508,836
66488.206274,508,832
66488.206274,506,832
66488.206274,506,836
66488.206274,506,832
66488.206274,506,832
66488.206274,506,836
66488.206274,506,832
66488.206274,506,836
66488.206274,506,832
66488.206274,506,832
66488.206274,505,836
66488.206274,506,832
66488.206274,506,832
66488.206274,506,836
66488.206274,506,832
66488.217798,505,832
66488.217798,505,836
66488.217798,504,832
66488.217798,504,832
66488.217798,504,836
66488.217798,503,832
66488.217798,504,832
66488.217798,504,836
66488.217798,504,832
66488.217798,504,832
66488.217798,503,836
66488.217798,502,832
66488.217798,501,832
66488.217798,501,836
66488.217798,500,832
66488.217798,500,832
66488.230466,500,836
66488.230466,500,832
66488.230466,500,832
66488.230466,501,836
66488.230466,502,832
66488.230466,504,832
66488.230466,505,836
66488.230466,506,832
66488.230466,507,836
66488.230466,508,832
66488.230466,509,832
66488.230466,509,836
66488.230466,508,832
66488.230466,507,832
66488.230466,506,836
66488.230466,505,832
66488.24695,504,832
66488.24695,502,836
66488.24695,500,832
66488.24695,499,832
66488.24695,498,836
66488.24695,498,832
66488.24695,497,832
66488.24695,497,836
66488.24695,496,832
66488.24695,495,832
66488.24695,493,836
66488.24695,491,832
66488.24695,490,832
66488.24695,489,836
66488.24695,488,832
66488.24695,488,832
66488.259777,487,836
66488.259777,487,832
66488.259777,487,832
66488.259777,486,836
66488.259777,486,832
66488.259777,485,832
66488.259777,484,836
66488.259777,482,832
66488.259777,481,836
66488.259777,480,832
66488.259777,479,832
66488.259777,478,836
66488.259777,477,832
66488.259777,475,832
66488.259777,474,848
66488.259777,472,820
66488.271122,471,832
66488.271122,470,836
66488.271122,468,832
66488.271122,466,832
66488.271122,464,836
66488.271122,462,832
66488.271122,459,832
66488.271122,457,836
66488.271122,456,832
66488.271122,454,832
66488.271122,453,836
66488.271122,452,832
66488.271122,450,832
66488.271122,449,836
66488.271122,448,832
66488.271122,446,832
66488.283794,446,836
66488.283794,446,832
66488.283794,445,832
66488.283794,444,836
66488.283794,442,832
66488.283794,441,832
66488.283794,437,836
66488.283794,435,832
66488.283794,432,832
66488.283794,430,836
66488.283794,428,832
66488.283794,427,836
66488.283794,424,832
66488.283794,422,832
66488.283794,421,836
66488.283794,418,832
66488.300383,416,832
66488.300383,413,836
66488.300383,410,832
66488.300383,407,832
66488.300383,405,836
66488.300383,403,832
66488.300383,401,832
66488.300383,400,836
66488.300383,398,832
66488.300383,396,832
66488.300383,394,836
66488.300383,391,832
66488.300383,389,832
66488.300383,387,836
66488.300383,385,832
66488.300383,384,832
66488.312074,384,836
66488.312074,383,832
66488.312074,382,832
66488.312074,382,836
66488.312074,381,832
66488.312074,379,832
66488.312074,378,836
66488.312074,375,832
66488.312074,373,836
66488.312074,370,832
66488.312074,368,832
66488.312074,366,836
66488.312074,363,832
66488.312074,361,832
66488.312074,360,836
66488.312074,358,832
66488.324865,356,832
66488.324865,355,836
66488.324865,353,832
66488.324865,351,832
66488.324865,349,836
66488.324865,348,832
66488.324865,346,832
66488.324865,345,836
66488.324865,343,832
66488.324865,341,832
66488.324865,339,836
66488.324865,336,832
66488.324865,334,832
66488.324865,331,836
66488.324865,329,832
66488.324865,327,832
66488.33631099999,326,836
66488.33631099999,323,832
66488.33631099999,321,832
66488.33631099999,320,836
66488.33631099999,318,832
66488.33631099999,316,832
66488.33631099999,315,836
66488.33631099999,314,832
66488.33631099999,312,836
66488.33631099999,310,832
66488.33631099999,309,832
66488.33631099999,307,836
66488.33631099999,305,832
66488.33631099999,304,832
66488.33631099999,303,836
66488.33631099999,301,832
66488.353984,299,832
66488.353984,298,836
66488.353984,297,832
66488.353984,296,832
66488.353984,295,836
66488.353984,293,832
66488.353984,292,832
66488.353984,290,836
66488.353984,289,832
66488.353984,288,832
66488.353984,287,836
66488.353984,285,832
66488.353984,283,832
66488.353984,281,836
66488.353984,280,832
66488.353984,279,832
66488.365634,278,836
66488.365634,276,832
66488.365634,276,832
66488.365634,274,836
66488.365634,273,832
66488.365634,272,832
66488.365634,267,836
66488.365634,267,832
66488.365634,267,836
66488.365634,267,832
66488.365634,267,832
66488.365634,267,836
66488.365634,267,832
66488.365634,267,832
66488.365634,265,836
66488.365634,264,832
66488.378429,262,832
66488.378429,259,836
66488.378429,258,832
66488.378429,256,832
66488.378429,255,836
66488.378429,254,832
66488.378429,253,832
66488.378429,251,836
66488.378429,250,832
66488.378429,249,832
66488.378429,247,836
66488.378429,246,832
66488.378429,245,832
66488.378429,244,836
66488.378429,243,832
66488.378429,243,832
66488.389947,241,836
66488.389947,239,832
66488.389947,238,832
66488.389947,237,836
66488.389947,236,832
66488.389947,235,832
66488.389947,234,836
66488.389947,233,832
66488.389947,231,832
66488.389947,229,836
66488.389947,227,832
66488.389947,225,836
66488.389947,223,832
66488.389947,220,832
66488.389947,219,836
66488.389947,216,832
66488.40637,214,832
66488.40637,212,836
66488.40637,210,832
66488.40637,207,832
66488.40637,205,836
66488.40637,203,832
66488.40637,200,832
66488.40637,199,836
66488.40637,196,832
66488.40637,194,832
66488.40637,192,836
66488.40637,189,832
66488.40637,187,832
66488.40637,185,836
66488.40637,181,832
66488.40637,179,832
66488.419177,177,836
66488.419177,174,832
66488.419177,173,832
66488.419177,171,836
66488.419177,169,832
66488.419177,166,832
66488.419177,164,836
66488.419177,163,832
66488.419177,161,832
66488.419177,160,836
66488.419177,159,836
66488.419177,157,832
66488.419177,156,832
66488.419177,154,832
66488.419177,153,836
66488.419177,151,832
66488.430613,150,832
66488.430613,149,836
66488.430613,147,832
66488.430613,146,832
66488.430613,144,836
66488.430613,142,832
66488.430613,141,832
66488.430613,139,836
66488.430613,137,832
66488.430613,135,832
66488.430613,133,836
66488.430613,132,832
66488.430613,130,832
66488.430613,130,836
66488.430613,129,832
66488.430613,128,832
66488.44329,127,836
66488.44329,127,832
66488.44329,126,832
66488.44329,125,836
66488.44329,124,832
66488.44329,123,832
66488.44329,123,836
66488.44329,122,832
66488.44329,121,836
66488.44329,120,832
66488.44329,118,832
66488.44329,116,836
66488.44329,115,832
66488.44329,114,832
66488.44329,112,836
66488.44329,111,832
66488.459648,109,832
66488.459648,107,836
66488.459648,106,832
66488.459648,104,832
66488.459648,103,836
66488.459648,101,832
66488.459648,98,832
66488.459648,97,840
66488.459648,96,832
66488.459648,95,828
66488.459648,94,836
66488.459648,92,832
66488.459648,91,832
66488.459648,90,836
66488.459648,88,832
66488.459648,87,832
66488.459648,85,836
66488.459648,83,832
66488.472388,81,832
66488.472388,80,836
66488.472388,78,832
66488.472388,77,836
66488.472388,75,832
66488.472388,74,836
66488.472388,73,832
66488.472388,72,832
66488.472388,71,832
66488.472388,70,836
66488.472388,69,832
66488.472388,68,832
66488.472388,67,836
66488.472388,65,832
66488.472388,63,832
66488.472388,63,836
66488.472388,62,832
66488.472388,61,832
66488.492555,60,836
66488.492555,59,832
66488.492555,57,832
66488.492555,57,840
66488.492555,55,832
66488.492555,56,828
66488.492555,56,836
66488.492555,56,832
66488.492555,56,832
66488.492555,55,840
66488.492555,55,832
66488.492555,55,832
66488.492555,55,836
66488.492555,55,828
66488.492555,55,832
66488.492555,54,836
66488.492555,53,832
66488.492555,52,836
66488.492555,51,832
66488.50506,50,836
66488.50506,49,836
66488.50506,49,828
66488.50506,49,832
66488.50506,48,836
66488.50506,48,832
66488.50506,49,840
66488.50506,48,832
66488.50506,47,832
66488.50506,46,832
66488.50506,46,832
66488.50506,46,832
66488.50506,46,832
66488.50506,46,836
66488.50506,46,832
66488.50506,46,832
66488.50506,46,840
66488.50506,46,832
66488.521462,47,828
66488.521462,47,836
66488.521462,47,832
66488.521462,48,832
66488.521462,48,840
66488.521462,47,832
66488.521462,47,832
66488.521462,47,832
66488.521462,46,832
66488.521462,45,832
66488.521462,45,836
66488.521462,44,832
66488.521462,44,836
66488.521462,43,832
66488.521462,41,836
66488.521462,41,832
66488.521462,40,832
66488.521462,40,832
66488.537703,40,836
66488.537703,40,832
66488.537703,40,840
66488.537703,40,832
66488.537703,41,832
66488.537703,42,832
66488.537703,43,832
66488.537703,45,832
66488.537703,46,832
66488.537703,47,836
66488.537703,49,832
66488.537703,50,832
66488.537703,49,840
66488.537703,50,828
66488.537703,51,832
66488.537703,52,836
66488.537703,52,832
66488.537703,52,832
66488.550376,53,844
66488.550376,53,828
66488.550376,53,832
66488.550376,55,836
66488.550376,55,828
66488.550376,56,832
66488.550376,58,836
66488.550376,59,832
66488.550376,60,836
66488.550376,61,832
66488.550376,62,836
66488.550376,62,832
66488.550376,63,832
66488.550376,64,832
66488.550376,65,836
66488.550376,67,832
66488.550376,67,840
66488.550376,69,832
66488.550376,69,832
66488.566938,71,832
66488.566938,72,832
66488.566938,73,832
66488.566938,74,832
66488.566938,76,836
66488.566938,77,832
66488.566938,79,832
66488.566938,80,840
66488.566938,82,828
66488.566938,84,832
66488.566938,85,836
66488.566938,87,832
66488.566938,88,832
66488.566938,89,840
66488.566938,91,832
66488.566938,92,832
66488.566938,94,836
66488.566938,96,828
66488.57941600001,97,832
66488.57941600001,98,836
66488.57941600001,100,832
66488.57941600001,101,832
66488.57941600001,103,836
66488.57941600001,104,832
66488.57941600001,104,832
66488.57941600001,105,836
66488.57941600001,107,832
66488.57941600001,108,836
66488.57941600001,108,832
66488.57941600001,109,832
66488.57941600001,110,836
66488.57941600001,110,832
66488.57941600001,112,832
66488.57941600001,113,836
66488.595734,113,832
66488.595734,114,832
66488.595734,115,836
66488.595734,117,832
66488.595734,117,832
66488.595734,119,836
66488.595734,120,832
66488.595734,122,832
66488.595734,122,836
66488.595734,124,832
66488.595734,124,832
66488.595734,125,836
66488.595734,127,832
66488.595734,128,832
66488.595734,129,836
66488.595734,130,832
66488.607115,130,832
66488.607115,131,836
66488.607115,131,832
66488.607115,132,832
66488.607115,133,836
66488.607115,134,832
66488.607115,135,832
66488.607115,136,836
66488.607115,136,832
66488.607115,137,836
66488.607115,137,832
66488.607115,139,832
66488.607115,139,836
66488.607115,140,832
66488.607115,141,832
66488.607115,142,848
66488.619789,143,820
66488.619789,143,832
66488.619789,144,836
66488.619789,146,832
66488.619789,147,832
66488.619789,148,836
66488.619789,150,832
66488.619789,150,832
66488.619789,151,836
66488.619789,151,832
66488.619789,152,832
66488.619789,153,836
66488.619789,154,832
66488.619789,155,832
66488.619789,156,836
66488.619789,156,832
66488.63629200001,156,832
66488.63629200001,156,836
66488.63629200001,156,832
66488.63629200001,157,832
66488.63629200001,158,836
66488.63629200001,159,832
66488.63629200001,160,832
66488.63629200001,161,836
66488.63629200001,161,832
66488.63629200001,162,836
66488.63629200001,163,832
66488.63629200001,164,832
66488.63629200001,165,836
66488.63629200001,166,832
66488.63629200001,166,832
66488.63629200001,167,836
66488.64892,168,832
66488.64892,167,832
66488.64892,168,836
66488.64892,169,832
66488.64892,171,832
66488.64892,171,836
66488.64892,173,832
66488.64892,174,832
66488.64892,175,836
66488.64892,176,832
66488.64892,177,832
66488.64892,178,836
66488.64892,180,832
66488.64892,180,832
66488.64892,181,836
66488.64892,182,832
66488.660311,183,832
66488.660311,184,836
66488.660311,185,832
66488.660311,186,832
66488.660311,187,836
66488.660311,188,832
66488.660311,190,832
66488.660311,191,836
66488.660311,193,832
66488.660311,194,836
66488.660311,195,832
66488.660311,197,832
66488.660311,198,836
66488.660311,198,832
66488.660311,199,832
66488.660311,199,836
66488.67272999999,201,832
66488.67272999999,202,832
66488.67272999999,203,836
66488.67272999999,203,832
66488.67272999999,204,832
66488.67272999999,205,836
66488.67272999999,206,832
66488.67272999999,207,832
66488.67272999999,209,836
66488.67272999999,209,832
66488.67272999999,210,832
66488.67272999999,211,836
66488.67272999999,213,832
66488.67272999999,214,832
66488.67272999999,216,836
66488.67272999999,217,832
66488.685889,219,832
66488.685889,220,836
66488.685889,221,832
66488.685889,220,832
66488.685889,219,836
66488.685889,220,832
66488.685889,221,832
66488.685889,222,836
66488.685889,223,832
66488.685889,223,836
66488.685889,223,832
66488.685889,224,832
66488.685889,225,836
66488.685889,226,832
66488.685889,227,832
66488.685889,229,836
66488.701964,230,832
66488.701964,231,832
66488.701964,233,836
66488.701964,233,832
66488.701964,234,832
66488.701964,235,836
66488.701964,236,832
66488.701964,237,832
66488.701964,237,836
66488.701964,237,832
66488.701964,238,832
66488.701964,239,836
66488.701964,239,832
66488.701964,239,832
66488.701964,239,836
66488.701964,240,832
66488.714073,240,832
66488.714073,241,836
66488.714073,242,832
66488.714073,242,832
66488.714073,242,836
66488.714073,243,832
66488.714073,244,836
66488.714073,245,832
66488.714073,246,832
66488.714073,247,836
66488.714073,248,832
66488.714073,249,832
66488.714073,249,836
66488.714073,250,832
66488.714073,251,832
66488.714073,251,836
66488.725554,252,832
66488.725554,252,832
66488.725554,253,836
66488.725554,253,832
66488.725554,254,832
66488.725554,255,836
66488.725554,256,832
66488.725554,257,832
66488.725554,257,836
66488.725554,257,832
66488.725554,257,832
66488.725554,258,836
66488.725554,259,832
66488.725554,260,832
66488.725554,261,836
66488.725554,260,832
66488.738106,261,832
66488.738106,261,836
66488.738106,262,832
66488.738106,262,832
66488.738106,263,836
66488.738106,263,832
66488.738106,264,832
66488.738106,264,836
66488.738106,264,832
66488.738106,265,836
66488.738106,265,832
66488.738106,266,832
66488.738106,266,836
66488.738106,267,832
66488.738106,268,832
66488.738106,268,836
66488.754348,269,832
66488.754348,270,832
66488.754348,271,836
66488.754348,272,832
66488.754348,272,832
66488.754348,272,836
66488.754348,273,832
66488.754348,274,832
66488.754348,274,836
66488.754348,274,832
66488.754348,275,832
66488.754348,275,836
66488.754348,275,832
66488.754348,275,832
66488.754348,276,836
66488.754348,276,832
66488.766996,277,832
66488.766996,278,836
66488.766996,278,832
66488.766996,278,832
66488.766996,278,836
66488.766996,277,832
66488.766996,278,836
66488.766996,279,832
66488.766996,279,832
66488.766996,280,836
66488.766996,280,832
66488.766996,281,844
66488.766996,282,824
66488.766996,282,832
66488.766996,283,832
66488.766996,283,836
66488.784666,284,832
66488.784666,284,832
66488.784666,284,836
66488.784666,284,832
66488.784666,284,832
66488.784666,285,836
66488.784666,286,832
66488.784666,287,832
66488.784666,287,836
66488.784666,288,832
66488.784666,288,832
66488.784666,289,836
66488.784666,289,832
66488.784666,290,832
66488.784666,291,836
66488.784666,290,832
66488.79237699999,290,832
66488.79237699999,290,836
66488.79237699999,290,832
66488.79237699999,290,832
66488.79237699999,291,836
66488.79237699999,291,832
66488.79237699999,292,832
66488.79237699999,293,836
66488.79237699999,294,832
66488.79237699999,294,836
66488.79237699999,294,832
66488.79237699999,293,832
66488.79237699999,293,836
66488.79237699999,293,832
66488.79237699999,293,832
66488.79237699999,293,836
66488.807606,293,832
66488.807606,293,832
66488.807606,293,836
66488.807606,293,832
66488.807606,293,832
66488.807606,293,836
66488.807606,294,832
66488.807606,295,832
66488.807606,295,836
66488.807606,296,832
66488.807606,296,832
66488.807606,297,836
66488.807606,297,832
66488.807606,297,832
66488.807606,297,836
66488.807606,298,832
66488.82023,298,832
66488.82023,299,836
66488.82023,299,832
66488.82023,299,832
66488.82023,299,836
66488.82023,300,832
66488.82023,301,832
66488.82023,301,836
66488.82023,302,832
66488.82023,302,836
66488.82023,303,832
66488.82023,303,832
66488.82023,304,836
66488.82023,305,832
66488.82023,305,832
66488.82023,305,836
66488.832728,306,832
66488.832728,307,832
66488.832728,308,836
66488.832728,308,832
66488.832728,309,832
66488.832728,310,836
66488.832728,311,832
66488.832728,312,832
66488.832728,312,836
66488.832728,312,832
66488.832728,313,832
66488.832728,312,836
66488.832728,312,832
66488.832728,312,832
66488.832728,312,836
66488.832728,312,832
66488.845449,312,832
66488.845449,312,836
66488.845449,312,832
66488.845449,312,832
66488.845449,312,836
66488.845449,312,832
66488.845449,313,836
66488.845449,313,832
66488.845449,314,832
66488.845449,316,836
66488.845449,317,832
66488.845449,318,832
66488.845449,319,836
66488.845449,319,832
66488.845449,320,832
66488.845449,321,836
66488.857071,322,832
66488.857071,322,832
66488.857071,323,836
66488.857071,324,832
66488.857071,325,832
66488.857071,325,836
66488.857071,326,832
66488.857071,326,832
66488.857071,327,836
66488.857071,327,832
66488.857071,328,832
66488.857071,329,836
66488.857071,329,832
66488.857071,329,832
66488.857071,330,836
66488.857071,330,832
66488.873683,331,832
66488.873683,332,836
66488.873683,332,832
66488.873683,333,832
66488.873683,334,836
66488.873683,335,832
66488.873683,335,832
66488.873683,335,836
66488.873683,335,832
66488.873683,336,836
66488.873683,336,832
66488.873683,337,832
66488.873683,337,836
66488.873683,338,832
66488.873683,339,832
66488.873683,339,836
66488.886376,340,832
66488.886376,340,832
66488.886376,342,836
66488.886376,343,832
66488.886376,343,832
66488.886376,344,836
66488.886376,345,832
66488.886376,346,832
66488.886376,346,836
66488.886376,346,832
66488.886376,347,832
66488.886376,347,836
66488.886376,348,832
66488.886376,348,832
66488.886376,349,836
66488.886376,349,832
66488.898113,349,832
66488.898113,349,836
66488.898113,349,832
66488.898113,350,832
66488.898113,350,836
66488.898113,350,832
66488.898113,351,832
66488.898113,351,836
66488.898113,351,832
66488.898113,351,836
66488.898113,351,832
66488.898113,351,832
66488.898113,351,836
66488.898113,351,832
66488.898113,351,832
66488.898113,351,836
66488.914684,352,832
66488.914684,352,832
66488.914684,352,836
66488.914684,352,832
66488.914684,352,832
66488.914684,353,836
66488.914684,353,832
66488.914684,354,832
66488.914684,355,836
66488.914684,354,832
66488.914684,355,832
66488.914684,356,836
66488.914684,357,832
66488.914684,357,832
66488.914684,358,836
66488.914684,359,832
66488.92735499999,360,832
66488.92735499999,360,836
66488.92735499999,360,832
66488.92735499999,359,832
66488.92735499999,359,836
66488.92735499999,359,832
66488.92735499999,359,832
66488.92735499999,359,836
66488.92735499999,358,832
66488.92735499999,358,836
66488.92735499999,358,832
66488.92735499999,358,832
66488.92735499999,358,836
66488.92735499999,358,832
66488.92735499999,358,832
66488.92735499999,358,836
66488.939001,359,832
66488.939001,360,832
66488.939001,362,836
66488.939001,363,832
66488.939001,364,832
66488.939001,365,836
66488.939001,367,832
66488.939001,367,832
66488.939001,368,836
66488.939001,369,832
66488.939001,369,832
66488.939001,370,836
66488.939001,370,832
66488.939001,371,832
66488.939001,372,836
66488.939001,373,832
66488.951647,374,832
66488.951647,374,836
66488.951647,375,832
66488.951647,375,832
66488.951647,376,836
66488.951647,377,832
66488.951647,377,836
66488.951647,378,832
66488.951647,378,832
66488.951647,378,836
66488.951647,377,832
66488.951647,377,832
66488.951647,377,836
66488.951647,376,832
66488.951647,376,832
66488.951647,376,836
66488.96816399999,376,832
66488.96816399999,375,832
66488.96816399999,375,848
66488.96816399999,375,820
66488.96816399999,375,832
66488.96816399999,375,836
66488.96816399999,376,832
66488.96816399999,376,832
66488.96816399999,376,836
66488.96816399999,376,832
66488.96816399999,377,832
66488.96816399999,378,836
66488.96816399999,378,832
66488.96816399999,379,832
66488.96816399999,381,836
66488.96816399999,382,832
66488.979562,383,832
66488.979562,385,836
66488.979562,387,832
66488.979562,388,832
66488.979562,390,836
66488.979562,391,832
66488.979562,392,836
66488.979562,393,832
66488.979562,394,832
66488.979562,396,836
66488.979562,399,832
66488.979562,401,832
66488.979562,404,836
66488.979562,407,832
66488.979562,410,832
66488.979562,414,836
66488.99223799999,418,832
66488.99223799999,422,832
66488.99223799999,426,836
66488.99223799999,430,832
66488.99223799999,434,832
66488.99223799999,439,836
66488.99223799999,443,832
66488.99223799999,448,832
66488.99223799999,453,836
66488.99223799999,458,832
66488.99223799999,464,832
66488.99223799999,470,836
66488.99223799999,475,832
66488.99223799999,481,832
66488.99223799999,486,836
66488.99223799999,491,832
66489.008775,496,832
66489.008775,501,836
66489.008775,507,832
66489.008775,509,832
66489.008775,514,836
66489.008775,520,832
66489.008775,527,832
66489.008775,532,836
66489.008775,537,832
66489.008775,542,836
66489.008775,547,832
66489.008775,553,832
66489.008775,559,836
66489.008775,565,832
66489.008775,571,832
66489.008775,577,836
66489.02135899999,582,832
66489.02135899999,588,832
66489.02135899999,593,836
66489.02135899999,599,832
66489.02135899999,605,832
66489.02135899999,610,836
66489.02135899999,615,832
66489.02135899999,619,832
66489.02135899999,625,836
66489.02135899999,630,832
66489.02135899999,635,832
66489.02135899999,641,836
66489.02135899999,646,832
66489.02135899999,650,832
66489.02135899999,655,836
66489.02135899999,660,832
66489.033989,664,832
66489.033989,667,836
66489.033989,671,832
66489.033989,673,832
66489.033989,676,836
66489.033989,680,832
66489.033989,684,832
66489.033989,687,836
66489.033989,691,832
66489.033989,694,836
66489.033989,697,832
66489.033989,699,832
66489.033989,701,836
66489.033989,704,832
66489.033989,706,832
66489.033989,708,836
66489.0454,709,832
66489.0454,711,832
66489.0454,712,836
66489.0454,714,832
66489.0454,715,832
66489.0454,716,836
66489.0454,717,832
66489.0454,718,832
66489.0454,720,836
66489.0454,720,832
66489.0454,721,832
66489.0454,722,836
66489.0454,722,832
66489.0454,722,832
66489.0454,723,836
66489.0454,722,832
66489.061684,723,832
66489.061684,722,836
66489.061684,721,832
66489.061684,720,832
66489.061684,721,836
66489.061684,721,832
66489.061684,721,832
66489.061684,721,836
66489.061684,720,832
66489.061684,720,836
66489.061684,720,832
66489.061684,720,832
66489.061684,720,836
66489.061684,719,832
66489.061684,718,832
66489.061684,717,836
66489.074304,717,832
66489.074304,716,832
66489.074304,715,836
66489.074304,714,832
66489.074304,713,832
66489.074304,712,836
66489.074304,712,832
66489.074304,712,832
66489.074304,711,836
66489.074304,711,832
66489.074304,712,832
66489.074304,712,836
66489.074304,712,832
66489.074304,712,832
66489.074304,712,836
66489.074304,712,832
66489.087036,712,832
66489.087036,711,836
66489.087036,710,832
66489.087036,709,832
66489.087036,708,836
66489.087036,706,832
66489.087036,705,836
66489.087036,704,832
66489.087036,704,832
66489.087036,703,836
66489.087036,703,832
66489.087036,701,832
66489.087036,700,836
66489.087036,699,832
66489.087036,698,832
66489.087036,698,836
66489.103506,697,832
66489.103506,697,832
66489.103506,696,836
66489.103506,696,832
66489.103506,695,832
66489.103506,696,836
66489.103506,695,832
66489.103506,695,832
66489.103506,695,836
66489.103506,694,832
66489.103506,693,832
66489.103506,692,836
66489.103506,692,832
66489.103506,691,832
66489.103506,691,836
66489.103506,691,832
66489.114974,690,832
66489.114974,690,836
66489.114974,689,832
66489.114974,689,832
66489.114974,689,836
66489.114974,689,832
66489.114974,689,836
66489.114974,689,832
66489.114974,689,832
66489.114974,688,836
66489.114974,688,832
66489.114974,688,832
66489.114974,688,836
66489.114974,688,832
66489.114974,687,836
66489.114974,687,832
66489.127552,687,832
66489.127552,686,832
66489.127552,686,836
66489.127552,685,832
66489.127552,684,832
66489.127552,683,836
66489.127552,683,832
66489.127552,682,832
66489.127552,681,836
66489.127552,680,832
66489.127552,680,832
66489.127552,680,836
66489.127552,679,832
66489.127552,679,832
66489.127552,678,836
66489.127552,677,832
66489.140152,677,832
66489.140152,676,836
66489.140152,676,832
66489.140152,674,832
66489.140152,674,836
66489.140152,674,832
66489.140152,674,836
66489.140152,674,832
66489.140152,674,832
66489.140152,674,836
66489.140152,673,832
66489.140152,673,832
66489.140152,672,836
66489.140152,672,832
66489.140152,672,832
66489.140152,673,836
66489.15663700001,673,832
66489.15663700001,672,832
66489.15663700001,672,836
66489.15663700001,672,832
66489.15663700001,672,832
66489.15663700001,671,836
66489.15663700001,671,832
66489.15663700001,671,832
66489.15663700001,670,836
66489.15663700001,670,832
66489.15663700001,670,832
66489.15663700001,670,836
66489.15663700001,669,832
66489.15663700001,669,832
66489.15663700001,668,836
66489.15663700001,667,832
66489.168058,667,832
66489.168058,666,836
66489.168058,666,832
66489.168058,666,832
66489.168058,665,836
66489.168058,665,832
66489.168058,664,832
66489.168058,664,836
66489.168058,664,832
66489.168058,663,836
66489.168058,662,832
66489.168058,662,832
66489.168058,662,836
66489.168058,661,832
66489.168058,661,832
66489.168058,661,836
66489.180723,660,832
66489.180723,661,832
66489.180723,660,836
66489.180723,659,832
66489.180723,659,832
66489.180723,659,836
66489.180723,660,832
66489.180723,660,832
66489.180723,660,836
66489.180723,660,832
66489.180723,660,832
66489.180723,660,836
66489.180723,659,832
66489.180723,659,832
66489.180723,658,836
66489.180723,657,832
66489.193443,657,832
66489.193443,656,836
66489.193443,655,832
66489.193443,655,832
66489.193443,654,836
66489.193443,654,832
66489.193443,653,832
66489.193443,652,836
66489.193443,652,832
66489.193443,651,836
66489.193443,651,832
66489.193443,650,832
66489.193443,650,836
66489.193443,650,832
66489.193443,650,832
66489.193443,650,836
66489.205636,650,832
66489.205636,650,832
66489.205636,649,836
66489.205636,650,832
66489.205636,650,832
66489.205636,650,836
66489.205636,650,832
66489.205636,650,832
66489.205636,650,836
66489.205636,650,832
66489.205636,650,832
66489.205636,650,836
66489.205636,650,832
66489.205636,650,832
66489.205636,650,836
66489.205636,650,832
66489.22184700001,650,832
66489.22184700001,650,836
66489.22184700001,649,832
66489.22184700001,650,832
66489.22184700001,649,836
66489.22184700001,650,832
66489.22184700001,650,832
66489.22184700001,651,836
66489.22184700001,650,832
66489.22184700001,650,836
66489.22184700001,650,832
66489.22184700001,650,832
66489.22184700001,649,836
66489.22184700001,649,832
66489.22184700001,649,832
66489.22184700001,648,836
66489.234391,648,832
66489.234391,648,832
66489.234391,649,836
66489.234391,648,832
66489.234391,648,832
66489.234391,648,836
66489.234391,648,832
66489.234391,647,832
66489.234391,647,836
66489.234391,647,832
66489.234391,647,832
66489.234391,647,836
66489.234391,647,832
66489.234391,646,832
66489.234391,646,836
66489.234391,647,832
66489.245919,647,832
66489.245919,646,836
66489.245919,646,832
66489.245919,646,832
66489.245919,647,836
66489.245919,647,832
66489.245919,647,832
66489.245919,647,836
66489.245919,647,832
66489.245919,647,836
66489.245919,647,832
66489.245919,649,832
66489.245919,649,836
66489.245919,649,832
66489.245919,649,832
66489.245919,649,836
66489.258594,649,832
66489.258594,649,832
66489.258594,648,836
66489.258594,649,832
66489.258594,648,832
66489.258594,648,836
66489.258594,648,832
66489.258594,648,832
66489.258594,648,836
66489.258594,649,832
66489.258594,649,832
66489.258594,649,836
66489.258594,650,832
66489.258594,650,832
66489.258594,649,836
66489.258594,650,832
66489.275088,649,832
66489.275088,650,836
66489.275088,651,832
66489.275088,652,832
66489.275088,653,836
66489.275088,654,832
66489.275088,654,832
66489.275088,654,836
66489.275088,654,832
66489.275088,653,836
66489.275088,653,832
66489.275088,653,832
66489.275088,652,836
66489.275088,654,832
66489.275088,656,832
66489.275088,657,836
66489.287698,656,832
66489.287698,654,832
66489.287698,652,836
66489.287698,651,832
66489.287698,652,832
66489.287698,653,836
66489.287698,651,832
66489.287698,653,832
66489.287698,657,836
66489.287698,659,832
66489.287698,661,832
66489.287698,664,836
66489.287698,668,832
66489.287698,670,832
66489.287698,670,836
66489.287698,669,832
66489.299118,670,832
66489.299118,671,836
66489.299118,675,832
66489.299118,681,832
66489.299118,684,836
66489.299118,683,832
66489.299118,682,832
66489.299118,682,836
66489.299118,684,832
66489.299118,688,836
66489.299118,692,832
66489.299118,695,832
66489.299118,699,836
66489.299118,702,832
66489.299118,708,832
66489.299118,716,836
66489.311709,721,832
66489.311709,726,832
66489.311709,731,836
66489.311709,736,832
66489.311709,742,832
66489.311709,747,848
66489.311709,753,820
66489.311709,761,832
66489.311709,766,836
66489.311709,772,832
66489.311709,780,832
66489.311709,787,836
66489.311709,793,832
66489.311709,801,832
66489.311709,807,836
66489.311709,814,832
66489.32869699999,820,832
66489.32869699999,827,836
66489.32869699999,834,832
66489.32869699999,844,832
66489.32869699999,854,836
66489.32869699999,860,832
66489.32869699999,864,836
66489.32869699999,868,832
66489.32869699999,873,832
66489.32869699999,879,836
66489.32869699999,886,832
66489.32869699999,894,832
66489.32869699999,900,836
66489.32869699999,905,832
66489.32869699999,913,832
66489.32869699999,921,836
66489.339951,931,832
66489.339951,939,832
66489.339951,943,836
66489.339951,947,832
66489.339951,951,832
66489.339951,959,836
66489.339951,966,832
66489.339951,973,832
66489.339951,980,836
66489.339951,987,832
66489.339951,990,832
66489.339951,995,836
66489.339951,998,832
66489.339951,1000,832
66489.339951,1002,836
66489.339951,1005,832
66489.35262399999,1012,832
66489.35262399999,1017,836
66489.35262399999,1021,832
66489.35262399999,1023,832
66489.35262399999,1023,836
66489.35262399999,1023,832
66489.35262399999,1023,836
66489.35262399999,1023,832
66489.35262399999,1023,832
66489.35262399999,1023,836
66489.35262399999,1023,832
66489.35262399999,1023,832
66489.35262399999,1023,836
66489.35262399999,1023,832
66489.365372,1023,832
66489.365372,1023,836
66489.365372,1023,832
66489.365372,1023,832
66489.365372,1023,836
66489.365372,1023,832
66489.365372,1023,832
66489.365372,1023,836
66489.365372,1023,832
66489.365372,1023,832
66489.365372,1023,836
66489.365372,1023,832
66489.365372,1023,832
66489.365372,1023,836
66489.377064,1023,832
66489.377064,1023,832
66489.377064,1023,836
66489.377064,1023,832
66489.377064,1023,832
66489.377064,1023,836
66489.377064,1023,832
66489.377064,1023,832
66489.377064,1023,836
66489.377064,1023,832
66489.377064,1023,832
66489.377064,1023,836
66489.377064,1023,832
66489.377064,1023,836
66489.389928,1023,832
66489.389928,1023,832
66489.389928,1023,836
66489.389928,1023,832
66489.389928,1023,832
66489.389928,1023,836
66489.389928,1023,832
66489.389928,1023,832
66489.389928,1023,836
66489.389928,1023,832
66489.389928,1023,832
66489.389928,1023,836
66489.389928,1023,832
66489.389928,1023,832
66489.389928,1023,836
66489.401365,1023,832
66489.401365,1023,832
66489.401365,1023,836
66489.401365,1023,832
66489.401365,1023,832
66489.401365,1023,836
66489.401365,1023,832
66489.401365,1023,832
66489.401365,1023,836
66489.401365,1023,832
66489.401365,1022,832
66489.401365,1020,836
66489.401365,1019,832
66489.401365,1017,836
66489.413995,1015,832
66489.413995,1012,832
66489.413995,1009,836
66489.413995,1006,832
66489.413995,1002,832
66489.413995,998,836
66489.413995,995,832
66489.413995,990,832
66489.413995,987,836
66489.413995,983,832
66489.413995,978,832
66489.413995,976,836
66489.413995,971,832
66489.413995,966,832
66489.413995,960,836
66489.42663,956,832
66489.42663,951,832
66489.42663,946,836
66489.42663,940,832
66489.42663,934,832
66489.42663,929,836
66489.42663,923,832
66489.42663,917,832
66489.42663,912,836
66489.42663,908,832
66489.42663,904,832
66489.42663,899,836
66489.42663,894,832
66489.42663,890,832
66489.42663,885,836
66489.42663,880,832
66489.439058,875,832
66489.439058,870,836
66489.439058,864,832
66489.439058,858,836
66489.439058,853,832
66489.439058,847,832
66489.439058,842,836
66489.439058,837,832
66489.439058,832,832
66489.439058,827,836
66489.439058,822,832
66489.439058,817,832
66489.439058,813,836
66489.439058,808,832
66489.439058,803,832
66489.439058,796,836
66489.450454,790,832
66489.450454,784,832
66489.450454,778,836
66489.450454,772,832
66489.450454,767,832
66489.450454,761,836
66489.450454,754,832
66489.450454,748,832
66489.450454,741,836
66489.450454,735,832
66489.450454,729,832
66489.450454,723,836
66489.450454,718,832
66489.450454,712,832
66489.450454,705,836
66489.450454,698,832
66489.463174,691,836
66489.463174,684,832
66489.463174,677,832
66489.463174,670,836
66489.463174,664,832
66489.463174,658,832
66489.463174,652,836
66489.463174,646,832
66489.463174,640,832
66489.463174,634,836
66489.463174,627,832
66489.463174,621,836
66489.463174,615,832
66489.463174,608,832
66489.463174,602,832
66489.463174,596,836
66489.479697,591,832
66489.479697,586,832
66489.479697,580,836
66489.479697,576,832
66489.479697,571,832
66489.479697,566,836
66489.479697,560,832
66489.479697,556,832
66489.479697,551,836
66489.479697,546,832
66489.479697,541,832
66489.479697,536,836
66489.479697,532,832
66489.479697,527,832
66489.479697,522,836
66489.479697,518,832
66489.492329,514,832
66489.492329,509,836
66489.492329,506,832
66489.492329,502,836
66489.492329,499,832
66489.492329,494,832
66489.492329,490,836
66489.492329,487,832
66489.492329,484,832
66489.492329,482,836
66489.492329,480,832
66489.492329,478,832
66489.492329,476,836
66489.492329,473,832
66489.492329,471,832
66489.492329,469,836
66489.503782,467,832
66489.503782,465,832
66489.503782,462,836
66489.503782,460,832
66489.503782,458,832
66489.503782,456,836
66489.503782,453,832
66489.503782,451,832
66489.503782,448,836
66489.503782,446,832
66489.503782,443,832
66489.503782,442,836
66489.503782,440,832
66489.503782,438,832
66489.503782,437,836
66489.503782,436,832
66489.51630799999,434,836
66489.51630799999,432,832
66489.51630799999,430,832
66489.51630799999,429,836
66489.51630799999,427,832
66489.51630799999,425,832
66489.51630799999,423,836
66489.51630799999,421,832
66489.51630799999,420,832
66489.51630799999,418,836
66489.51630799999,417,832
66489.51630799999,415,832
66489.51630799999,413,836
66489.51630799999,412,832
66489.51630799999,411,832
66489.51630799999,409,836
66489.532975,409,832
66489.532975,407,832
66489.532975,406,836
66489.532975,405,832
66489.532975,403,832
66489.532975,402,836
66489.532975,401,832
66489.532975,400,832
66489.532975,399,836
66489.532975,397,832
66489.532975,396,832
66489.532975,394,836
66489.532975,392,832
66489.532975,391,832
66489.532975,390,836
66489.532975,388,832
66489.545619,387,832
66489.545619,385,836
66489.545619,384,832
66489.545619,383,836
66489.545619,382,832
66489.545619,382,832
66489.545619,381,836
66489.545619,380,832
66489.545619,378,832
66489.545619,377,836
66489.545619,376,832
66489.545619,376,832
66489.545619,375,836
66489.545619,373,832
66489.545619,373,832
66489.545619,373,836
66489.558229,372,832
66489.558229,371,832
66489.558229,371,836
66489.558229,370,832
66489.558229,370,832
66489.558229,369,836
66489.558229,368,832
66489.558229,367,832
66489.558229,366,836
66489.558229,366,832
66489.558229,365,832
66489.558229,364,836
66489.558229,364,832
66489.558229,363,832
66489.558229,363,836
66489.558229,362,832
66489.569736,361,832
66489.569736,361,836
66489.569736,360,832
66489.569736,359,836
66489.569736,358,832
66489.569736,357,832
66489.569736,356,836
66489.569736,356,832
66489.569736,355,832
66489.569736,355,836
66489.569736,354,832
66489.569736,354,832
66489.569736,353,836
66489.569736,352,832
66489.569736,352,832
66489.569736,351,836
66489.586535,350,832
66489.586535,349,832
66489.586535,349,836
66489.586535,348,832
66489.586535,347,832
66489.586535,347,836
66489.586535,346,832
66489.586535,346,832
66489.586535,344,836
66489.586535,343,832
66489.586535,342,832
66489.586535,342,836
66489.586535,342,832
66489.586535,342,832
66489.586535,342,836
66489.586535,342,832
66489.598098,342,832
66489.598098,342,836
66489.598098,342,832
66489.598098,342,836
66489.598098,342,832
66489.598098,342,832
66489.598098,342,836
66489.598098,341,832
66489.598098,341,832
66489.598098,340,836
66489.598098,340,832
66489.598098,340,832
66489.598098,340,836
66489.598098,340,832
66489.598098,340,832
66489.598098,340,836
66489.610762,340,832
66489.610762,340,832
66489.610762,339,836
66489.610762,339,832
66489.610762,338,832
66489.610762,339,836
66489.610762,338,832
66489.610762,339,832
66489.610762,339,836
66489.610762,339,832
66489.610762,339,832
66489.610762,339,836
66489.610762,338,832
66489.610762,337,832
66489.610762,336,836
66489.610762,336,832
66489.62726,336,836
66489.62726,337,832
66489.62726,337,832
66489.62726,336,836
66489.62726,337,832
66489.62726,337,832
66489.62726,337,836
66489.62726,338,832
66489.62726,337,832
66489.62726,337,836
66489.62726,336,832
66489.62726,336,832
66489.62726,336,836
66489.62726,336,832
66489.62726,336,832
66489.62726,336,836
66489.640131,336,832
66489.640131,336,832
66489.640131,337,836
66489.640131,337,832
66489.640131,336,832
66489.640131,336,836
66489.640131,336,832
66489.640131,335,832
66489.640131,335,836
66489.640131,336,832
66489.640131,336,832
66489.640131,336,836
66489.640131,336,832
66489.640131,336,832
66489.640131,336,836
66489.640131,336,832
66489.651499,336,836
66489.651499,336,832
66489.651499,337,832
66489.651499,337,836
66489.651499,338,832
66489.651499,339,832
66489.651499,338,836
66489.651499,339,832
66489.651499,339,832
66489.651499,339,836
66489.651499,339,832
66489.651499,339,832
66489.651499,339,836
66489.651499,339,832
66489.651499,340,832
66489.651499,340,836
66489.66416300001,340,832
66489.66416300001,341,832
66489.66416300001,342,840
66489.66416300001,342,828
66489.66416300001,343,832
66489.66416300001,343,836
66489.66416300001,344,832
66489.66416300001,345,832
66489.66416300001,346,836
66489.66416300001,348,832
66489.66416300001,349,832
66489.66416300001,349,836
66489.66416300001,350,832
66489.66416300001,350,832
66489.66416300001,350,836
66489.66416300001,351,832
66489.680609,352,832
66489.680609,352,836
66489.680609,352,832
66489.680609,352,836
66489.680609,352,832
66489.680609,352,832
66489.680609,353,836
66489.680609,353,832
66489.680609,353,832
66489.680609,354,836
66489.680609,353,832
66489.680609,354,832
66489.680609,354,836
66489.680609,354,832
66489.680609,353,832
66489.680609,352,836
66489.693342,352,832
66489.693342,353,832
66489.693342,353,836
66489.693342,353,832
66489.693342,353,832
66489.693342,353,836
66489.693342,353,832
66489.693342,352,832
66489.693342,352,836
66489.693342,352,832
66489.693342,351,832
66489.693342,351,836
66489.693342,351,832
66489.693342,351,832
66489.693342,351,836
66489.693342,351,832
66489.705077,352,832
66489.705077,352,836
66489.705077,352,832
66489.705077,353,836
66489.705077,353,832
66489.705077,353,832
66489.705077,353,836
66489.705077,353,832
66489.705077,353,832
66489.705077,353,836
66489.705077,353,832
66489.705077,353,832
66489.705077,353,836
66489.705077,353,832
66489.705077,353,832
66489.705077,352,836
66489.721586,353,832
66489.721586,353,832
66489.721586,353,836
66489.721586,353,832
66489.721586,353,832
66489.721586,353,836
66489.721586,353,832
66489.721586,353,832
66489.721586,354,836
66489.721586,354,832
66489.721586,355,832
66489.721586,356,836
66489.721586,357,832
66489.721586,358,832
66489.721586,358,836
66489.721586,358,832
66489.735679,358,836
66489.735679,359,832
66489.735679,359,832
66489.735679,359,836
66489.735679,358,832
66489.735679,358,832
66489.735679,358,836
66489.735679,358,832
66489.735679,358,832
66489.735679,358,836
66489.735679,359,832
66489.735679,359,832
66489.735679,360,836
66489.735679,360,832
66489.735679,360,832
66489.735679,360,836
66489.74591499999,361,832
66489.74591499999,361,832
66489.74591499999,361,836
66489.74591499999,362,832
66489.74591499999,363,832
66489.74591499999,363,836
66489.74591499999,363,832
66489.74591499999,363,832
66489.74591499999,364,836
66489.74591499999,364,832
66489.74591499999,364,832
66489.74591499999,365,836
66489.74591499999,364,832
66489.74591499999,365,832
66489.74591499999,365,836
66489.74591499999,366,832
66489.758408,366,832
66489.758408,367,836
66489.758408,368,832
66489.758408,368,836
66489.758408,368,832
66489.758408,369,832
66489.758408,369,836
66489.758408,369,832
66489.758408,369,832
66489.758408,369,836
66489.758408,369,832
66489.758408,369,832
66489.758408,369,836
66489.758408,370,832
66489.758408,370,832
66489.758408,370,836
66489.774861,370,832
66489.774861,370,832
66489.774861,370,836
66489.774861,370,832
66489.774861,370,832
66489.774861,370,836
66489.774861,370,832
66489.774861,370,832
66489.774861,370,836
66489.774861,370,832
66489.774861,370,832
66489.774861,370,836
66489.774861,370,832
66489.774861,370,832
66489.774861,370,836
66489.774861,370,832
66489.787512,370,836
66489.787512,370,832
66489.787512,371,832
66489.787512,371,836
66489.787512,371,832
66489.787512,372,832
66489.787512,372,836
66489.787512,372,832
66489.787512,372,832
66489.787512,373,836
66489.787512,372,832
66489.787512,372,832
66489.787512,373,836
66489.787512,373,832
66489.787512,373,832
66489.787512,373,836
66489.79895,374,832
66489.79895,374,832
66489.79895,375,836
66489.79895,375,832
66489.79895,375,832
66489.79895,376,836
66489.79895,376,832
66489.79895,377,832
66489.79895,377,836
66489.79895,378,832
66489.79895,378,832
66489.79895,379,836
66489.79895,377,832
66489.79895,375,832
66489.79895,376,836
66489.79895,377,832
66489.811626,379,832
66489.811626,379,836
66489.811626,380,832
66489.811626,380,836
66489.811626,380,832
66489.811626,381,832
66489.811626,382,836
66489.811626,383,832
66489.811626,383,832
66489.811626,384,836
66489.811626,384,832
66489.811626,384,832
66489.811626,385,836
66489.811626,385,832
66489.811626,386,836
66489.811626,386,832
66489.82782199999,386,832
66489.82782199999,387,832
66489.82782199999,387,836
66489.82782199999,388,832
66489.82782199999,388,832
66489.82782199999,389,836
66489.82782199999,389,832
66489.82782199999,390,832
66489.82782199999,391,836
66489.82782199999,393,832
66489.82782199999,394,832
66489.82782199999,395,836
66489.82782199999,395,832
66489.82782199999,396,832
66489.82782199999,396,836
66489.82782199999,396,832
66489.840169,396,832
66489.840169,396,836
66489.840169,397,832
66489.840169,397,836
66489.840169,397,832
66489.840169,396,832
66489.840169,397,836
66489.840169,397,832
66489.840169,397,832
66489.840169,397,836
66489.840169,398,832
66489.840169,399,832
66489.840169,399,836
66489.840169,399,832
66489.840169,400,832
66489.840169,400,836
66489.852917,401,832
66489.852917,401,832
66489.852917,402,836
66489.852917,402,832
66489.852917,403,832
66489.852917,404,836
66489.852917,404,832
66489.852917,405,832
66489.852917,406,836
66489.852917,406,832
66489.852917,406,832
66489.852917,406,836
66489.852917,406,832
66489.852917,406,832
66489.852917,406,836
66489.852917,406,832
66489.86550500001,406,836
66489.86550500001,407,832
66489.86550500001,407,832
66489.86550500001,408,836
66489.86550500001,408,832
66489.86550500001,408,832
66489.86550500001,408,836
66489.86550500001,409,832
66489.86550500001,409,832
66489.86550500001,409,836
66489.86550500001,410,832
66489.86550500001,410,832
66489.86550500001,411,836
66489.86550500001,412,832
66489.86550500001,412,832
66489.86550500001,412,836
66489.880678,413,832
66489.880678,413,832
66489.880678,412,836
66489.880678,413,832
66489.880678,413,832
66489.880678,413,836
66489.880678,413,832
66489.880678,414,832
66489.880678,415,836
66489.880678,415,832
66489.880678,416,832
66489.880678,417,836
66489.880678,418,832
66489.880678,418,832
66489.880678,419,836
66489.880678,419,832
66489.893275,419,836
66489.893275,420,832
66489.893275,420,832
66489.893275,419,836
66489.893275,419,832
66489.893275,419,832
66489.893275,419,836
66489.893275,418,832
66489.893275,417,832
66489.893275,417,836
66489.893275,418,832
66489.893275,418,832
66489.893275,418,836
66489.893275,418,832
66489.893275,419,832
66489.893275,419,836
66489.90591300001,420,832
66489.90591300001,420,832
66489.90591300001,420,836
66489.90591300001,420,832
66489.90591300001,421,832
66489.90591300001,421,836
66489.90591300001,421,832
66489.90591300001,422,832
66489.90591300001,423,836
66489.90591300001,424,832
66489.90591300001,425,832
66489.90591300001,425,836
66489.90591300001,426,832
66489.90591300001,426,832
66489.90591300001,427,836
66489.90591300001,428,832
66489.917323,428,836
66489.917323,428,832
66489.917323,429,832
66489.917323,429,836
66489.917323,430,832
66489.917323,431,832
66489.917323,431,836
66489.917323,431,832
66489.917323,431,832
66489.917323,432,836
66489.917323,433,832
66489.917323,434,832
66489.917323,434,836
66489.917323,435,832
66489.917323,435,832
66489.917323,435,836
66489.929899,435,832
66489.929899,435,832
66489.929899,435,836
66489.929899,435,832
66489.929899,435,832
66489.929899,435,836
66489.929899,435,832
66489.929899,435,832
66489.929899,435,836
66489.929899,435,832
66489.929899,436,832
66489.929899,436,836
66489.929899,436,832
66489.929899,436,832
66489.929899,436,836
66489.929899,437,832
66489.946242,437,836
66489.946242,437,832
66489.946242,438,832
66489.946242,438,836
66489.946242,437,832
66489.946242,438,832
66489.946242,437,836
66489.946242,437,832
66489.946242,437,832
66489.946242,437,836
66489.946242,436,832
66489.946242,436,832
66489.946242,436,836
66489.946242,436,832
66489.946242,437,832
66489.946242,437,836
66489.959036,437,832
66489.959036,438,832
66489.959036,438,836
66489.959036,439,832
66489.959036,439,832
66489.959036,439,836
66489.959036,440,832
66489.959036,441,832
66489.959036,441,836
66489.959036,441,832
66489.959036,441,832
66489.959036,442,836
66489.959036,442,832
66489.959036,443,832
66489.959036,444,836
66489.959036,444,832
66489.971486,445,836
66489.971486,444,832
66489.971486,445,832
66489.971486,445,836
66489.971486,446,832
66489.971486,446,832
66489.971486,446,836
66489.971486,446,832
66489.971486,446,832
66489.971486,446,836
66489.971486,447,832
66489.971486,447,832
66489.971486,448,836
66489.971486,448,832
66489.971486,448,832
66489.971486,448,836
66489.984081,448,832
66489.984081,448,832
66489.984081,448,836
66489.984081,447,832
66489.984081,447,832
66489.984081,447,836
66489.984081,447,832
66489.984081,447,832
66489.984081,447,836
66489.984081,448,832
66489.984081,448,832
66489.984081,448,836
66489.984081,448,832
66489.984081,448,832
66489.984081,448,836
66489.984081,448,832
66489.999308,448,832
66489.999308,449,836
66489.999308,448,832
66489.999308,449,836
66489.999308,449,832
66489.999308,449,832
66489.999308,449,836
66489.999308,449,832
66489.999308,449,832
66489.999308,448,836
66489.999308,448,832
66489.999308,449,832
66489.999308,449,836
66489.999308,450,832
66489.999308,450,832
66489.999308,451,836
66490.011997,451,832
66490.011997,452,832
66490.011997,452,836
66490.011997,453,832
66490.011997,454,832
66490.011997,454,840
66490.011997,454,828
66490.011997,454,832
66490.011997,454,836
66490.011997,454,832
66490.011997,454,832
66490.011997,453,836
66490.011997,453,832
66490.011997,453,832
66490.011997,453,836
66490.011997,453,832
66490.024675,452,832
66490.024675,452,836
66490.024675,453,832
66490.024675,452,836
66490.024675,452,832
66490.024675,452,832
66490.024675,452,836
66490.024675,452,832
66490.024675,452,832
66490.024675,453,836
66490.024675,453,832
66490.024675,454,832
66490.024675,455,836
66490.024675,455,832
66490.024675,456,832
66490.024675,456,836
66490.037398,457,832
66490.037398,458,832
66490.037398,458,836
66490.037398,459,832
66490.037398,460,832
66490.037398,461,836
66490.037398,461,832
66490.037398,462,832
66490.037398,463,836
66490.037398,463,832
66490.037398,464,832
66490.037398,464,836
66490.037398,464,832
66490.037398,465,832
66490.037398,466,836
66490.037398,466,832
66490.053898,467,836
66490.053898,467,832
66490.053898,467,832
66490.053898,467,836
66490.053898,466,832
66490.053898,466,832
66490.053898,466,836
66490.053898,467,832
66490.053898,467,832
66490.053898,467,836
66490.053898,468,832
66490.053898,468,832
66490.053898,469,836
66490.053898,470,832
66490.053898,470,832
66490.053898,469,836
66490.065455,470,832
66490.065455,470,832
66490.065455,470,836
66490.065455,471,832
66490.065455,471,832
66490.065455,471,836
66490.065455,470,832
66490.065455,470,832
66490.065455,470,836
66490.065455,471,832
66490.065455,472,832
66490.065455,472,836
66490.065455,472,832
66490.065455,472,832
66490.065455,473,836
66490.065455,474,832
66490.078159,474,832
66490.078159,475,836
66490.078159,476,832
66490.078159,477,836
66490.078159,477,832
66490.078159,478,832
66490.078159,478,836
66490.078159,478,832
66490.078159,478,832
66490.078159,478,836
66490.078159,478,832
66490.078159,478,832
66490.078159,478,836
66490.078159,478,832
66490.078159,478,832
66490.078159,479,836
66490.094737,479,832
66490.094737,480,832
66490.094737,480,836
66490.094737,480,832
66490.094737,480,832
66490.094737,479,836
66490.094737,480,832
66490.094737,481,832
66490.094737,481,836
66490.094737,481,832
66490.094737,482,832
66490.094737,482,836
66490.094737,483,832
66490.094737,483,832
66490.094737,483,836
66490.094737,482,832
66490.106258,482,832
66490.106258,482,836
66490.106258,484,832
66490.106258,485,836
66490.106258,486,832
66490.106258,487,832
66490.106258,488,836
66490.106258,488,832
66490.106258,488,832
66490.106258,489,836
66490.106258,489,832
66490.106258,490,832
66490.106258,490,836
66490.106258,491,832
66490.106258,492,832
66490.106258,492,836
66490.119206,492,832
66490.119206,492,832
66490.119206,492,836
66490.119206,493,832
66490.119206,493,832
66490.119206,493,836
66490.119206,493,832
66490.119206,494,832
66490.119206,494,836
66490.119206,495,832
66490.119206,495,832
66490.119206,496,836
66490.119206,496,832
66490.119206,494,832
66490.119206,492,836
66490.119206,493,832
66490.130485,494,832
66490.130485,496,836
66490.130485,497,832
66490.130485,497,836
66490.130485,497,832
66490.130485,497,832
66490.130485,497,836
66490.130485,497,832
66490.130485,497,832
66490.130485,497,836
66490.130485,498,832
66490.130485,498,832
66490.130485,499,836
66490.130485,499,832
66490.130485,499,832
66490.130485,499,836
66490.147,498,832
66490.147,495,832
66490.147,495,836
66490.147,496,832
66490.147,497,832
66490.147,498,836
66490.147,499,832
66490.147,499,832
66490.147,500,836
66490.147,500,832
66490.147,501,832
66490.147,500,836
66490.147,501,832
66490.147,501,832
66490.147,500,836
66490.147,500,832
66490.159652,500,832
66490.159652,500,836
66490.159652,500,832
66490.159652,500,836
66490.159652,500,832
66490.159652,501,832
66490.159652,500,836
66490.159652,501,832
66490.159652,502,832
66490.159652,502,836
66490.159652,503,832
66490.159652,504,832
66490.159652,504,836
66490.159652,504,832
66490.159652,505,832
66490.159652,504,836
66490.172474,504,832
66490.172474,504,836
66490.172474,504,832
66490.172474,505,832
66490.172474,505,832
66490.172474,505,836
66490.172474,506,832
66490.172474,506,832
66490.172474,507,836
66490.172474,507,832
66490.172474,507,832
66490.172474,507,836
66490.172474,508,832
66490.172474,509,832
66490.172474,510,836
66490.172474,511,832
66490.188622,512,832
66490.188622,512,836
66490.188622,513,832
66490.188622,513,836
66490.188622,512,832
66490.188622,512,832
66490.188622,511,836
66490.188622,512,832
66490.188622,512,832
66490.188622,513,836
66490.188622,513,832
66490.188622,513,832
66490.188622,514,836
66490.188622,515,832
66490.188622,515,832
66490.188622,516,836
66490.201331,516,832
66490.201331,516,832
66490.201331,516,836
66490.201331,517,832
66490.201331,517,832
66490.201331,517,836
66490.201331,517,832
66490.201331,517,832
66490.201331,517,836
66490.201331,517,832
66490.201331,517,832
66490.201331,517,836
66490.201331,517,832
66490.201331,517,832
66490.201331,517,836
66490.201331,516,832
66490.212736,517,836
66490.212736,516,832
66490.212736,517,832
66490.212736,517,836
66490.212736,516,832
66490.212736,516,832
66490.212736,516,836
66490.212736,516,832
66490.212736,516,832
66490.212736,516,836
66490.212736,517,832
66490.212736,516,832
66490.212736,516,836
66490.212736,516,832
66490.212736,516,832
66490.212736,516,836
66490.225392,517,832
66490.225392,517,832
66490.225392,517,836
66490.225392,516,832
66490.225392,517,832
66490.225392,517,836
66490.225392,517,832
66490.225392,517,832
66490.225392,517,836
66490.225392,518,832
66490.225392,518,832
66490.225392,519,836
66490.225392,519,832
66490.225392,520,832
66490.225392,521,836
66490.225392,521,832
66490.241917,522,832
66490.241917,522,836
66490.241917,521,832
66490.241917,521,836
66490.241917,521,832
66490.241917,520,832
66490.241917,520,836
66490.241917,520,832
66490.241917,519,832
66490.241917,518,836
66490.241917,517,832
66490.241917,517,832
66490.241917,516,836
66490.241917,517,832
66490.241917,517,832
66490.241917,517,836
66490.25332999999,517,832
66490.25332999999,518,832
66490.25332999999,518,836
66490.25332999999,519,832
66490.25332999999,519,832
66490.25332999999,519,836
66490.25332999999,519,832
66490.25332999999,520,832
66490.25332999999,520,836
66490.25332999999,519,832
66490.25332999999,519,832
66490.25332999999,518,836
66490.25332999999,518,832
66490.25332999999,518,832
66490.25332999999,518,836
66490.25332999999,518,832
66490.26601600001,518,832
66490.26601600001,517,836
66490.26601600001,516,832
66490.26601600001,516,836
66490.26601600001,516,832
66490.26601600001,516,832
66490.26601600001,516,836
66490.26601600001,516,832
66490.26601600001,516,832
66490.26601600001,517,836
66490.26601600001,517,832
66490.26601600001,517,832
66490.26601600001,518,836
66490.26601600001,518,832
66490.26601600001,519,832
66490.26601600001,520,836
66490.282836,521,832
66490.282836,521,832
66490.282836,521,836
66490.282836,521,832
66490.282836,521,832
66490.282836,520,836
66490.282836,520,832
66490.282836,519,832
66490.282836,519,836
66490.282836,518,832
66490.282836,518,832
66490.282836,517,836
66490.282836,517,832
66490.282836,517,832
66490.282836,517,836
66490.282836,517,832
66490.295421,516,836
66490.295421,515,832
66490.295421,515,832
66490.295421,515,836
66490.295421,515,832
66490.295421,516,832
66490.295421,516,836
66490.295421,516,832
66490.295421,517,832
66490.295421,517,836
66490.295421,517,832
66490.295421,516,832
66490.295421,517,836
66490.295421,517,832
66490.295421,517,832
66490.295421,517,836
66490.306898,516,832
66490.306898,517,832
66490.306898,517,836
66490.306898,517,832
66490.306898,517,832
66490.306898,517,836
66490.306898,517,832
66490.306898,517,832
66490.306898,518,836
66490.306898,518,832
66490.306898,518,832
66490.306898,517,836
66490.306898,518,832
66490.306898,518,832
66490.306898,518,836
66490.306898,518,832
66490.319793,518,832
66490.319793,518,836
66490.319793,518,832
66490.319793,518,836
66490.319793,518,832
66490.319793,518,832
66490.319793,518,836
66490.319793,518,832
66490.319793,517,832
66490.319793,517,836
66490.319793,517,832
66490.319793,517,832
66490.319793,517,836
66490.319793,517,832
66490.319793,517,832
66490.319793,517,836
66490.336356,517,832
66490.336356,517,832
66490.336356,518,836
66490.336356,518,832
66490.336356,517,832
66490.336356,517,836
66490.336356,517,832
66490.336356,517,832
66490.336356,518,836
66490.336356,518,832
66490.336356,518,832
66490.336356,518,836
66490.336356,517,832
66490.336356,517,832
66490.336356,517,836
66490.336356,516,832
66490.34773,516,832
66490.34773,516,836
66490.34773,517,832
66490.34773,518,836
66490.34773,518,832
66490.34773,518,832
66490.34773,518,836
66490.34773,518,832
66490.34773,517,832
66490.34773,517,836
66490.34773,517,832
66490.34773,517,832
66490.34773,518,836
66490.34773,518,832
66490.34773,518,832
66490.34773,518,836
66490.360367,518,832
66490.360367,517,832
66490.360367,517,836
66490.360367,516,832
66490.360367,516,832
66490.360367,516,836
66490.360367,517,832
66490.360367,517,832
66490.360367,517,840
66490.360367,518,828
66490.360367,518,832
66490.360367,519,836
66490.360367,519,832
66490.360367,519,832
66490.360367,519,836
66490.360367,518,832
66490.373102,518,836
66490.373102,517,832
66490.373102,517,832
66490.373102,517,836
66490.373102,517,832
66490.373102,516,832
66490.373102,516,836
66490.373102,516,832
66490.373102,516,832
66490.373102,516,836
66490.373102,516,832
66490.373102,516,832
66490.373102,516,836
66490.373102,516,832
66490.373102,517,832
66490.373102,518,836
66490.384702,518,832
66490.384702,519,832
66490.384702,520,836
66490.384702,520,832
66490.384702,520,832
66490.384702,521,836
66490.384702,521,832
66490.384702,522,832
66490.384702,522,836
66490.384702,523,832
66490.384702,523,832
66490.384702,524,836
66490.384702,525,832
66490.384702,526,832
66490.384702,526,836
66490.384702,527,832
66490.401458,528,832
66490.401458,528,836
66490.401458,529,832
66490.401458,529,836
66490.401458,529,832
66490.401458,528,832
66490.401458,528,836
66490.401458,527,832
66490.401458,527,832
66490.401458,527,836
66490.401458,527,832
66490.401458,526,832
66490.401458,526,836
66490.401458,525,832
66490.401458,525,832
66490.401458,524,836
66490.413006,524,832
66490.413006,524,832
66490.413006,523,836
66490.413006,522,832
66490.413006,521,832
66490.413006,521,836
66490.413006,520,832
66490.413006,520,832
66490.413006,519,836
66490.413006,519,832
66490.413006,519,832
66490.413006,519,836
66490.413006,519,832
66490.413006,520,832
66490.413006,520,836
66490.413006,520,832
66490.42567899999,519,836
66490.42567899999,519,832
66490.42567899999,518,832
66490.42567899999,517,836
66490.42567899999,516,832
66490.42567899999,516,832
66490.42567899999,515,836
66490.42567899999,515,832
66490.42567899999,514,832
66490.42567899999,514,836
66490.42567899999,514,832
66490.42567899999,514,832
66490.42567899999,515,836
66490.42567899999,515,832
66490.42567899999,515,832
66490.42567899999,515,836
66490.438292,515,832
66490.438292,516,832
66490.438292,515,836
66490.438292,515,832
66490.438292,515,832
66490.438292,515,836
66490.438292,514,832
66490.438292,514,832
66490.438292,514,836
66490.438292,513,832
66490.438292,514,832
66490.438292,513,836
66490.438292,509,832
66490.438292,509,832
66490.438292,509,836
66490.438292,510,832
66490.450978,510,836
66490.450978,511,832
66490.450978,511,832
66490.450978,512,836
66490.450978,512,832
66490.450978,512,832
66490.450978,513,836
66490.450978,513,832
66490.450978,513,832
66490.450978,514,836
66490.450978,515,832
66490.450978,515,832
66490.450978,516,836
66490.450978,516,832
66490.450978,517,832
66490.450978,517,836
66490.467423,518,832
66490.467423,519,832
66490.467423,518,836
66490.467423,519,832
66490.467423,518,832
66490.467423,518,836
66490.467423,517,832
66490.467423,517,832
66490.467423,517,836
66490.467423,517,832
66490.467423,517,832
66490.467423,517,836
66490.467423,517,832
66490.467423,517,832
66490.467423,517,836
66490.467423,517,832
66490.480521,516,836
66490.480521,516,832
66490.480521,516,832
66490.480521,516,836
66490.480521,516,832
66490.480521,516,832
66490.480521,516,836
66490.480521,516,832
66490.480521,516,832
66490.480521,517,836
66490.480521,518,832
66490.480521,518,832
66490.480521,519,836
66490.480521,519,832
66490.480521,519,832
66490.480521,519,836
66490.491694,519,832
66490.491694,518,832
66490.491694,518,836
66490.491694,518,832
66490.491694,517,832
66490.491694,516,836
66490.491694,516,832
66490.491694,516,832
66490.491694,516,836
66490.491694,516,832
66490.491694,517,832
66490.491694,517,836
66490.491694,518,832
66490.491694,518,832
66490.491694,519,836
66490.491694,519,832
66490.504474,519,836
66490.504474,519,832
66490.504474,519,832
66490.504474,518,836
66490.504474,518,832
66490.504474,518,832
66490.504474,517,836
66490.504474,518,832
66490.504474,517,832
66490.504474,518,836
66490.504474,517,832
66490.504474,518,832
66490.504474,518,836
66490.504474,518,832
66490.504474,518,832
66490.504474,518,836
66490.519748,519,832
66490.519748,519,832
66490.519748,518,836
66490.519748,519,832
66490.519748,519,836
66490.519748,519,832
66490.519748,519,832
66490.519748,519,832
66490.519748,519,836
66490.519748,519,832
66490.519748,519,832
66490.519748,519,836
66490.519748,519,832
66490.519748,519,832
66490.519748,520,836
66490.519748,520,832
66490.532366,520,836
66490.532366,521,832
66490.532366,521,832
66490.532366,521,836
66490.532366,521,832
66490.532366,520,832
66490.532366,520,836
66490.532366,519,832
66490.532366,520,832
66490.532366,520,836
66490.532366,521,832
66490.532366,521,832
66490.532366,521,836
66490.532366,521,832
66490.532366,521,832
66490.532366,520,836
66490.544969,520,832
66490.544969,519,832
66490.544969,518,836
66490.544969,518,832
66490.544969,518,832
66490.544969,518,836
66490.544969,519,832
66490.544969,519,832
66490.544969,519,836
66490.544969,520,832
66490.544969,520,832
66490.544969,519,836
66490.544969,520,832
66490.544969,520,832
66490.544969,521,836
66490.544969,521,832
66490.561459,521,832
66490.561459,521,836
66490.561459,521,832
66490.561459,521,836
66490.561459,521,832
66490.561459,521,832
66490.561459,521,836
66490.561459,522,832
66490.561459,522,832
66490.561459,521,836
66490.561459,521,832
66490.561459,521,832
66490.561459,522,836
66490.561459,522,832
66490.561459,521,832
66490.561459,521,836
66490.572772,521,832
66490.572772,520,832
66490.572772,520,836
66490.572772,520,832
66490.572772,520,832
66490.572772,521,836
66490.572772,521,832
66490.572772,521,832
66490.572772,522,836
66490.572772,521,832
66490.572772,522,832
66490.572772,523,836
66490.572772,523,832
66490.572772,523,832
66490.572772,524,836
66490.572772,524,832
66490.585284,523,832
66490.585284,524,836
66490.585284,524,832
66490.585284,524,836
66490.585284,523,832
66490.585284,522,832
66490.585284,522,836
66490.585284,521,832
66490.585284,520,832
66490.585284,521,836
66490.585284,522,832
66490.585284,522,832
66490.585284,522,836
66490.585284,522,832
66490.585284,522,832
66490.585284,522,836
66490.597974,522,832
66490.597974,522,832
66490.597974,523,836
66490.597974,523,832
66490.597974,523,832
66490.597974,523,836
66490.597974,522,832
66490.597974,523,832
66490.597974,523,836
66490.597974,523,832
66490.597974,522,832
66490.597974,522,836
66490.597974,523,832
66490.597974,523,832
66490.597974,523,836
66490.597974,524,832
66490.614385,524,836
66490.614385,524,832
66490.614385,525,832
66490.614385,525,836
66490.614385,525,832
66490.614385,525,832
66490.614385,525,836
66490.614385,524,832
66490.614385,524,832
66490.614385,523,836
66490.614385,524,832
66490.614385,524,832
66490.614385,524,836
66490.614385,524,832
66490.614385,524,832
66490.614385,525,836
66490.626806,525,832
66490.626806,525,832
66490.626806,526,836
66490.626806,525,832
66490.626806,526,832
66490.626806,526,836
66490.626806,525,832
66490.626806,525,832
66490.626806,525,836
66490.626806,526,832
66490.626806,526,832
66490.626806,527,836
66490.626806,527,832
66490.626806,527,832
66490.626806,527,836
66490.626806,527,832
66490.639425,526,836
66490.639425,526,832
66490.639425,526,832
66490.639425,526,836
66490.639425,526,832
66490.639425,525,832
66490.639425,525,836
66490.639425,525,832
66490.639425,525,832
66490.639425,524,836
66490.639425,524,832
66490.639425,525,832
66490.639425,525,836
66490.639425,525,832
66490.639425,525,832
66490.639425,526,836
66490.655917,525,832
66490.655917,525,832
66490.655917,525,836
66490.655917,525,832
66490.655917,525,832
66490.655917,526,836
66490.655917,526,832
66490.655917,526,832
66490.655917,526,836
66490.655917,526,832
66490.655917,526,832
66490.655917,525,836
66490.655917,525,832
66490.655917,525,832
66490.655917,525,836
66490.655917,524,832
66490.667315,524,832
66490.667315,524,836
66490.667315,524,832
66490.667315,523,836
66490.667315,523,832
66490.667315,523,832
66490.667315,523,836
66490.667315,522,832
66490.667315,522,832
66490.667315,522,836
66490.667315,522,832
66490.667315,522,832
66490.667315,522,836
66490.667315,522,832
66490.667315,523,832
66490.667315,522,836
66490.679959,522,832
66490.679959,522,832
66490.679959,523,836
66490.679959,523,832
66490.679959,523,832
66490.679959,523,836
66490.679959,523,832
66490.679959,523,832
66490.679959,524,836
66490.679959,523,832
66490.679959,523,832
66490.679959,523,836
66490.679959,522,832
66490.679959,522,832
66490.679959,523,836
66490.679959,523,832
66490.692655,523,832
66490.692655,523,836
66490.692655,523,832
66490.692655,523,836
66490.692655,522,832
66490.692655,521,832
66490.692655,521,836
66490.692655,521,832
66490.692655,521,832
66490.692655,521,836
66490.692655,520,832
66490.692655,520,832
66490.692655,519,836
66490.692655,519,832
66490.692655,519,832
66490.692655,520,836
66490.708189,520,832
66490.708189,521,832
66490.708189,521,836
66490.708189,522,832
66490.708189,523,832
66490.708189,523,836
66490.708189,523,832
66490.708189,523,832
66490.708189,523,836
66490.708189,523,832
66490.708189,523,832
66490.708189,524,848
66490.708189,524,820
66490.708189,523,832
66490.708189,523,836
66490.708189,523,832
66490.721067,523,832
66490.721067,523,836
66490.721067,522,832
66490.721067,522,836
66490.721067,522,832
66490.721067,522,832
66490.721067,521,836
66490.721067,521,832
66490.721067,521,832
66490.721067,520,836
66490.721067,520,832
66490.721067,520,832
66490.721067,520,836
66490.721067,520,832
66490.721067,520,832
66490.721067,520,836
66490.732526,520,832
66490.732526,521,832
66490.732526,522,836
66490.732526,523,832
66490.732526,523,832
66490.732526,523,836
66490.732526,523,832
66490.732526,523,832
66490.732526,522,836
66490.732526,522,832
66490.732526,522,832
66490.732526,522,836
66490.732526,522,832
66490.732526,523,832
66490.732526,523,836
66490.732526,523,832
