timestamp,data1,data2
66546.955759,533,736
66546.955759,534,836
66546.955759,535,832
66546.955759,535,832
66546.955759,535,836
66546.955759,536,832
66546.955759,535,832
66546.955759,536,836
66546.955759,536,832
66546.955759,536,836
66546.955759,536,832
66546.955759,536,832
66546.955759,536,836
66546.955759,536,832
66546.974886,536,832
66546.974886,536,836
66546.974886,536,832
66546.974886,537,832
66546.974886,537,836
66546.974886,537,832
66546.974886,537,832
66546.974886,537,836
66546.974886,536,832
66546.974886,536,832
66546.974886,537,836
66546.974886,537,832
66546.974886,537,832
66546.974886,537,836
66546.974886,538,832
66546.974886,538,832
66546.980376,538,836
66546.980376,538,832
66546.980376,538,832
66546.980376,538,836
66546.980376,538,832
66546.980376,538,832
66546.980376,538,836
66546.980376,538,832
66546.980376,537,836
66546.980376,538,832
66546.980376,537,832
66546.980376,536,836
66546.980376,535,832
66546.980376,535,832
66546.980376,535,836
66546.980376,535,832
66546.995783,535,832
66546.995783,535,836
66546.995783,534,832
66546.995783,534,832
66546.995783,534,836
66546.995783,535,832
66546.995783,535,832
66546.995783,535,836
66546.995783,535,832
66546.995783,535,832
66546.995783,534,836
66546.995783,534,832
66546.995783,534,832
66546.995783,534,836
66546.995783,534,832
66546.995783,534,832
66547.008543,534,836
66547.008543,533,832
66547.008543,533,832
66547.008543,533,836
66547.008543,534,832
66547.008543,534,832
66547.008543,534,836
66547.008543,534,832
66547.008543,534,836
66547.008543,535,832
66547.008543,535,832
66547.008543,535,836
66547.008543,535,832
66547.008543,535,832
66547.008543,535,836
66547.008543,535,832
66547.021268,535,832
66547.021268,535,836
66547.021268,535,832
66547.021268,535,832
66547.021268,535,836
66547.021268,535,832
66547.021268,535,832
66547.021268,535,836
66547.021268,534,832
66547.021268,534,832
66547.021268,534,836
66547.021268,534,832
66547.021268,534,832
66547.021268,534,836
66547.021268,534,832
66547.021268,534,832
66547.032576,534,836
66547.032576,534,832
66547.032576,534,832
66547.032576,533,836
66547.032576,533,832
66547.032576,533,832
66547.032576,532,836
66547.032576,532,832
66547.032576,532,836
66547.032576,532,832
66547.032576,532,832
66547.032576,532,836
66547.032576,532,832
66547.032576,532,832
66547.032576,532,836
66547.032576,533,832
66547.049107,533,832
66547.049107,533,836
66547.049107,533,832
66547.049107,533,832
66547.049107,532,836
66547.049107,532,832
66547.049107,532,832
66547.049107,532,836
66547.049107,532,832
66547.049107,532,832
66547.049107,532,836
66547.049107,531,832
66547.049107,532,832
66547.049107,531,836
66547.049107,531,832
66547.049107,531,832
66547.061772,531,836
66547.061772,531,832
66547.061772,532,832
66547.061772,532,836
66547.061772,533,832
66547.061772,534,832
66547.061772,534,836
66547.061772,534,832
66547.061772,534,832
66547.061772,534,836
66547.061772,534,832
66547.061772,535,836
66547.061772,534,832
66547.061772,535,832
66547.061772,534,836
66547.061772,533,832
66547.074511,533,832
66547.074511,533,836
66547.074511,533,832
66547.074511,533,832
66547.074511,532,836
66547.074511,532,832
66547.074511,532,832
66547.074511,532,836
66547.074511,532,832
66547.074511,533,832
66547.074511,532,836
66547.074511,532,832
66547.074511,531,832
66547.074511,531,836
66547.074511,532,832
66547.074511,532,832
66547.085871,532,836
66547.085871,532,832
66547.085871,533,832
66547.085871,532,836
66547.085871,532,832
66547.085871,532,832
66547.085871,532,836
66547.085871,531,832
66547.085871,531,832
66547.085871,531,836
66547.085871,530,832
66547.085871,530,836
66547.085871,529,832
66547.085871,529,832
66547.085871,529,836
66547.085871,529,832
66547.098528,529,832
66547.098528,528,836
66547.098528,528,832
66547.098528,528,832
66547.098528,528,836
66547.098528,529,832
66547.098528,528,832
66547.098528,529,836
66547.098528,529,832
66547.098528,529,832
66547.098528,528,836
66547.098528,528,832
66547.098528,528,832
66547.098528,527,836
66547.098528,527,832
66547.098528,527,832
66547.114979,528,836
66547.114979,528,832
66547.114979,528,832
66547.114979,528,836
66547.114979,528,832
66547.114979,529,832
66547.114979,529,836
66547.114979,530,832
66547.114979,530,836
66547.114979,530,832
66547.114979,530,832
66547.114979,530,836
66547.114979,531,832
66547.114979,530,832
66547.114979,530,836
66547.114979,530,832
66547.12792099999,531,832
66547.12792099999,532,836
66547.12792099999,532,832
66547.12792099999,532,832
66547.12792099999,532,836
66547.12792099999,531,832
66547.12792099999,531,832
66547.12792099999,531,836
66547.12792099999,531,832
66547.12792099999,531,832
66547.12792099999,530,836
66547.12792099999,530,832
66547.12792099999,530,832
66547.12792099999,529,836
66547.12792099999,529,832
66547.12792099999,529,832
66547.139514,529,836
66547.139514,528,832
66547.139514,527,832
66547.139514,527,836
66547.139514,526,832
66547.139514,526,832
66547.139514,526,836
66547.139514,525,832
66547.139514,524,832
66547.139514,524,836
66547.139514,524,832
66547.139514,524,836
66547.139514,524,832
66547.139514,523,832
66547.139514,523,836
66547.139514,523,832
66547.151956,522,832
66547.151956,522,836
66547.151956,522,832
66547.151956,522,832
66547.151956,522,836
66547.151956,522,832
66547.151956,522,832
66547.151956,522,836
66547.151956,522,832
66547.151956,522,832
66547.151956,522,836
66547.151956,522,832
66547.151956,522,832
66547.151956,522,836
66547.151956,522,832
66547.151956,522,832
66547.168407,521,836
66547.168407,522,832
66547.168407,522,832
66547.168407,522,836
66547.168407,522,832
66547.168407,522,832
66547.168407,522,836
66547.168407,521,832
66547.168407,521,836
66547.168407,521,832
66547.168407,521,832
66547.168407,520,836
66547.168407,520,832
66547.168407,520,832
66547.168407,520,836
66547.168407,520,832
66547.17992899999,520,832
66547.17992899999,521,836
66547.17992899999,521,832
66547.17992899999,521,832
66547.17992899999,522,836
66547.17992899999,522,832
66547.17992899999,522,832
66547.17992899999,522,836
66547.17992899999,521,832
66547.17992899999,521,832
66547.17992899999,521,836
66547.17992899999,521,832
66547.17992899999,521,832
66547.17992899999,520,836
66547.17992899999,520,832
66547.17992899999,520,832
66547.192834,520,836
66547.192834,519,832
66547.192834,519,832
66547.192834,518,836
66547.192834,518,832
66547.192834,518,832
66547.192834,517,836
66547.192834,517,832
66547.192834,517,832
66547.192834,518,836
66547.192834,518,832
66547.192834,518,836
66547.192834,518,832
66547.192834,518,832
66547.192834,519,836
66547.192834,519,832
66547.20556,519,832
66547.20556,519,836
66547.20556,520,832
66547.20556,520,832
66547.20556,520,836
66547.20556,520,832
66547.20556,520,832
66547.20556,520,836
66547.20556,521,832
66547.20556,521,832
66547.20556,521,836
66547.20556,521,832
66547.20556,522,832
66547.20556,521,836
66547.20556,521,832
66547.20556,521,832
66547.21715,522,836
66547.21715,522,832
66547.21715,523,832
66547.21715,522,836
66547.21715,522,832
66547.21715,523,832
66547.21715,523,836
66547.21715,525,832
66547.21715,524,832
66547.21715,524,836
66547.21715,524,832
66547.21715,523,836
66547.21715,523,832
66547.21715,523,832
66547.21715,523,836
66547.21715,523,832
66547.233502,523,832
66547.233502,522,836
66547.233502,522,832
66547.233502,522,832
66547.233502,522,836
66547.233502,522,832
66547.233502,522,832
66547.233502,522,836
66547.233502,522,832
66547.233502,522,832
66547.233502,523,836
66547.233502,523,832
66547.233502,523,832
66547.233502,523,836
66547.233502,524,832
66547.233502,524,832
66547.24600900001,524,836
66547.24600900001,524,832
66547.24600900001,523,832
66547.24600900001,523,836
66547.24600900001,523,832
66547.24600900001,523,832
66547.24600900001,523,836
66547.24600900001,523,832
66547.24600900001,523,836
66547.24600900001,523,832
66547.24600900001,522,832
66547.24600900001,522,836
66547.24600900001,521,832
66547.24600900001,521,832
66547.24600900001,521,836
66547.24600900001,521,832
66547.258613,522,832
66547.258613,521,836
66547.258613,522,832
66547.258613,522,832
66547.258613,522,836
66547.258613,522,832
66547.258613,522,832
66547.258613,522,836
66547.258613,522,832
66547.258613,522,832
66547.258613,521,836
66547.258613,521,832
66547.258613,520,832
66547.258613,520,836
66547.258613,520,844
66547.258613,520,820
66547.275136,519,836
66547.275136,520,832
66547.275136,520,832
66547.275136,520,836
66547.275136,520,832
66547.275136,520,832
66547.275136,520,836
66547.275136,520,832
66547.275136,520,832
66547.275136,520,836
66547.275136,520,832
66547.275136,520,836
66547.275136,520,832
66547.275136,520,832
66547.275136,520,836
66547.275136,521,832
66547.287724,521,832
66547.287724,520,836
66547.287724,520,832
66547.287724,520,832
66547.287724,520,836
66547.287724,520,832
66547.287724,520,832
66547.287724,520,836
66547.287724,521,832
66547.287724,520,832
66547.287724,520,836
66547.287724,520,832
66547.287724,520,832
66547.287724,519,836
66547.287724,519,832
66547.287724,519,832
66547.299188,519,836
66547.299188,519,832
66547.299188,519,832
66547.299188,519,836
66547.299188,519,832
66547.299188,519,832
66547.299188,520,836
66547.299188,520,832
66547.299188,520,836
66547.299188,521,832
66547.299188,521,832
66547.299188,521,836
66547.299188,521,832
66547.299188,521,832
66547.299188,521,836
66547.299188,522,832
66547.311931,522,832
66547.311931,522,836
66547.311931,522,832
66547.311931,522,832
66547.311931,521,836
66547.311931,521,832
66547.311931,521,832
66547.311931,521,836
66547.311931,522,832
66547.311931,522,832
66547.311931,522,836
66547.311931,522,832
66547.311931,523,832
66547.311931,523,836
66547.311931,523,832
66547.311931,523,832
66547.328194,523,836
66547.328194,523,832
66547.328194,522,832
66547.328194,522,836
66547.328194,522,832
66547.328194,522,832
66547.328194,521,836
66547.328194,521,832
66547.328194,520,836
66547.328194,520,832
66547.328194,520,832
66547.328194,520,836
66547.328194,520,832
66547.328194,520,832
66547.328194,521,836
66547.328194,521,832
66547.340639,522,832
66547.340639,521,836
66547.340639,521,832
66547.340639,521,832
66547.340639,520,836
66547.340639,520,832
66547.340639,520,832
66547.340639,520,836
66547.340639,520,832
66547.340639,519,832
66547.340639,519,836
66547.340639,519,832
66547.340639,519,832
66547.340639,519,836
66547.340639,519,832
66547.340639,518,832
66547.352032,518,836
66547.352032,518,832
66547.352032,518,832
66547.352032,518,836
66547.352032,518,832
66547.352032,517,832
66547.352032,517,836
66547.352032,517,832
66547.352032,517,836
66547.352032,518,832
66547.352032,519,832
66547.352032,518,836
66547.352032,519,832
66547.352032,519,832
66547.352032,519,836
66547.352032,519,832
66547.368527,519,832
66547.368527,520,836
66547.368527,519,832
66547.368527,519,832
66547.368527,519,836
66547.368527,519,832
66547.368527,518,832
66547.368527,518,836
66547.368527,518,832
66547.368527,518,832
66547.368527,518,836
66547.368527,519,832
66547.368527,519,832
66547.368527,519,836
66547.368527,519,832
66547.368527,519,832
66547.381268,520,836
66547.381268,520,832
66547.381268,520,832
66547.381268,519,836
66547.381268,520,832
66547.381268,520,832
66547.381268,520,836
66547.381268,520,832
66547.381268,521,836
66547.381268,521,832
66547.381268,520,832
66547.381268,521,836
66547.381268,521,832
66547.381268,521,832
66547.381268,521,836
66547.381268,521,832
66547.393624,521,832
66547.393624,522,836
66547.393624,522,832
66547.393624,522,832
66547.393624,522,836
66547.393624,523,832
66547.393624,522,832
66547.393624,522,836
66547.393624,522,832
66547.393624,522,832
66547.393624,522,836
66547.393624,522,832
66547.393624,522,832
66547.393624,521,836
66547.393624,521,832
66547.393624,522,832
66547.406177,521,836
66547.406177,521,832
66547.406177,521,832
66547.406177,521,836
66547.406177,521,832
66547.406177,521,832
66547.406177,521,836
66547.406177,521,832
66547.406177,520,832
66547.406177,520,836
66547.406177,520,832
66547.406177,519,836
66547.406177,519,832
66547.406177,519,832
66547.406177,520,836
66547.406177,520,832
66547.422653,520,832
66547.422653,519,836
66547.422653,520,832
66547.422653,519,832
66547.422653,519,836
66547.422653,519,832
66547.422653,519,832
66547.422653,520,836
66547.422653,520,832
66547.422653,520,832
66547.422653,519,836
66547.422653,519,832
66547.422653,520,832
66547.422653,520,836
66547.422653,520,832
66547.422653,520,832
66547.433987,519,836
66547.433987,520,832
66547.433987,520,832
66547.433987,520,836
66547.433987,520,832
66547.433987,519,832
66547.433987,519,836
66547.433987,519,832
66547.433987,518,836
66547.433987,518,832
66547.433987,518,832
66547.433987,519,836
66547.433987,519,832
66547.433987,520,832
66547.433987,520,836
66547.433987,520,832
66547.446616,519,832
66547.446616,519,836
66547.446616,519,832
66547.446616,519,832
66547.446616,519,836
66547.446616,519,832
66547.446616,519,832
66547.446616,519,836
66547.446616,520,832
66547.446616,520,832
66547.446616,520,836
66547.446616,520,832
66547.446616,520,832
66547.446616,520,836
66547.446616,520,832
66547.446616,520,832
66547.463086,520,836
66547.463086,520,832
66547.463086,520,832
66547.463086,520,836
66547.463086,520,832
66547.463086,519,832
66547.463086,520,836
66547.463086,520,832
66547.463086,521,836
66547.463086,522,832
66547.463086,522,832
66547.463086,522,836
66547.463086,521,832
66547.463086,522,832
66547.463086,522,836
66547.463086,522,832
66547.475839,521,832
66547.475839,521,836
66547.475839,521,832
66547.475839,521,832
66547.475839,521,836
66547.475839,522,832
66547.475839,522,832
66547.475839,522,836
66547.475839,522,832
66547.475839,522,832
66547.475839,522,836
66547.475839,522,832
66547.475839,522,832
66547.475839,522,836
66547.475839,522,832
66547.475839,522,832
66547.487284,522,836
66547.487284,522,832
66547.487284,522,832
66547.487284,522,836
66547.487284,522,832
66547.487284,522,832
66547.487284,522,836
66547.487284,522,832
66547.487284,522,832
66547.487284,522,836
66547.487284,522,832
66547.487284,523,836
66547.487284,523,832
66547.487284,523,832
66547.487284,523,836
66547.487284,523,832
66547.50006,524,832
66547.50006,524,836
66547.50006,524,832
66547.50006,524,832
66547.50006,524,836
66547.50006,524,832
66547.50006,525,832
66547.50006,524,836
66547.50006,525,832
66547.50006,524,832
66547.50006,525,836
66547.50006,525,832
66547.50006,525,832
66547.50006,525,836
66547.50006,525,832
66547.50006,526,832
66547.516979,526,836
66547.516979,526,832
66547.516979,525,832
66547.516979,525,836
66547.516979,525,832
66547.516979,526,832
66547.516979,526,836
66547.516979,526,832
66547.516979,527,832
66547.516979,527,836
66547.516979,527,832
66547.516979,527,836
66547.516979,527,832
66547.516979,528,832
66547.516979,528,836
66547.516979,528,832
66547.52938400001,527,832
66547.52938400001,526,836
66547.52938400001,526,832
66547.52938400001,526,832
66547.52938400001,527,836
66547.52938400001,527,832
66547.52938400001,526,832
66547.52938400001,527,836
66547.52938400001,526,832
66547.52938400001,526,832
66547.52938400001,527,836
66547.52938400001,527,832
66547.52938400001,528,832
66547.52938400001,528,836
66547.52938400001,527,832
66547.52938400001,527,832
66547.54068199999,527,836
66547.54068199999,527,832
66547.54068199999,527,832
66547.54068199999,528,836
66547.54068199999,528,832
66547.54068199999,527,832
66547.54068199999,527,836
66547.54068199999,527,832
66547.54068199999,527,832
66547.54068199999,527,836
66547.54068199999,527,832
66547.54068199999,527,836
66547.54068199999,526,832
66547.54068199999,527,832
66547.54068199999,526,836
66547.54068199999,526,832
66547.553377,527,832
66547.553377,527,836
66547.553377,526,832
66547.553377,527,832
66547.553377,526,836
66547.553377,527,832
66547.553377,526,832
66547.553377,527,836
66547.553377,527,832
66547.553377,527,832
66547.553377,527,836
66547.553377,527,832
66547.553377,528,832
66547.553377,527,836
66547.553377,527,832
66547.553377,527,832
66547.565999,527,836
66547.565999,528,832
66547.565999,528,832
66547.565999,528,836
66547.565999,528,832
66547.565999,527,832
66547.565999,527,836
66547.565999,527,832
66547.565999,527,832
66547.565999,527,836
66547.565999,526,832
66547.565999,526,836
66547.565999,526,832
66547.565999,526,832
66547.565999,526,836
66547.565999,526,832
66547.582319,526,832
66547.582319,526,836
66547.582319,526,832
66547.582319,526,832
66547.582319,526,836
66547.582319,526,832
66547.582319,526,832
66547.582319,526,836
66547.582319,526,832
66547.582319,526,832
66547.582319,526,836
66547.582319,526,832
66547.582319,526,832
66547.582319,526,836
66547.582319,525,832
66547.582319,525,832
66547.59374099999,525,836
66547.59374099999,525,832
66547.59374099999,524,832
66547.59374099999,524,836
66547.59374099999,524,832
66547.59374099999,524,832
66547.59374099999,524,836
66547.59374099999,524,832
66547.59374099999,524,832
66547.59374099999,524,836
66547.59374099999,524,832
66547.59374099999,523,836
66547.59374099999,523,832
66547.59374099999,523,832
66547.59374099999,523,836
66547.59374099999,524,832
66547.60655,524,832
66547.60655,524,836
66547.60655,524,832
66547.60655,524,832
66547.60655,525,836
66547.60655,524,832
66547.60655,524,832
66547.60655,525,836
66547.60655,525,832
66547.60655,524,832
66547.60655,525,836
66547.60655,524,832
66547.60655,524,832
66547.60655,524,836
66547.60655,524,832
66547.60655,524,832
66547.618995,524,836
66547.618995,525,844
66547.618995,525,820
66547.618995,526,836
66547.618995,526,832
66547.618995,527,832
66547.618995,527,836
66547.618995,527,832
66547.618995,527,832
66547.618995,527,836
66547.618995,527,832
66547.618995,527,836
66547.618995,527,832
66547.618995,527,832
66547.618995,527,836
66547.618995,527,832
66547.635284,526,832
66547.635284,526,836
66547.635284,527,832
66547.635284,527,832
66547.635284,527,836
66547.635284,526,832
66547.635284,526,832
66547.635284,526,836
66547.635284,526,832
66547.635284,526,832
66547.635284,526,836
66547.635284,525,832
66547.635284,525,832
66547.635284,525,836
66547.635284,525,832
66547.635284,525,832
66547.647883,525,836
66547.647883,525,832
66547.647883,525,832
66547.647883,525,836
66547.647883,525,832
66547.647883,525,832
66547.647883,525,836
66547.647883,525,832
66547.647883,525,832
66547.647883,525,836
66547.647883,524,832
66547.647883,524,836
66547.647883,524,832
66547.647883,524,832
66547.647883,524,836
66547.647883,524,832
66547.659251,523,832
66547.659251,523,836
66547.659251,523,832
66547.659251,523,832
66547.659251,523,836
66547.659251,523,832
66547.659251,523,832
66547.659251,522,836
66547.659251,522,832
66547.659251,521,832
66547.659251,522,836
66547.659251,522,832
66547.659251,521,832
66547.659251,521,836
66547.659251,521,832
66547.659251,521,832
66547.671872,521,836
66547.671872,522,832
66547.671872,522,832
66547.671872,521,836
66547.671872,521,832
66547.671872,521,832
66547.671872,521,836
66547.671872,520,832
66547.671872,521,832
66547.671872,521,836
66547.671872,521,832
66547.671872,521,836
66547.671872,521,832
66547.671872,521,832
66547.671872,520,836
66547.671872,520,832
66547.688248,521,832
66547.688248,521,836
66547.688248,520,832
66547.688248,520,832
66547.688248,520,836
66547.688248,519,832
66547.688248,519,832
66547.688248,520,836
66547.688248,520,832
66547.688248,520,832
66547.688248,520,836
66547.688248,520,832
66547.688248,519,832
66547.688248,519,836
66547.688248,519,832
66547.688248,520,832
66547.70095,520,836
66547.70095,520,832
66547.70095,521,832
66547.70095,521,836
66547.70095,521,832
66547.70095,521,832
66547.70095,520,836
66547.70095,521,832
66547.70095,520,832
66547.70095,521,836
66547.70095,521,832
66547.70095,520,836
66547.70095,521,832
66547.70095,522,832
66547.70095,522,836
66547.70095,522,832
66547.713471,522,832
66547.713471,523,836
66547.713471,523,832
66547.713471,523,832
66547.713471,523,836
66547.713471,523,832
66547.713471,523,832
66547.713471,523,836
66547.713471,524,832
66547.713471,524,832
66547.713471,525,836
66547.713471,525,832
66547.713471,525,832
66547.713471,526,836
66547.713471,526,832
66547.713471,526,832
66547.725067,526,836
66547.725067,526,832
66547.725067,526,832
66547.725067,527,836
66547.725067,526,832
66547.725067,526,832
66547.725067,527,836
66547.725067,527,832
66547.725067,526,836
66547.725067,526,832
66547.725067,526,832
66547.725067,526,836
66547.725067,527,832
66547.725067,527,832
66547.725067,527,836
66547.725067,527,832
66547.741587,527,832
66547.741587,528,836
66547.741587,527,832
66547.741587,527,832
66547.741587,527,836
66547.741587,527,832
66547.741587,527,832
66547.741587,527,836
66547.741587,527,832
66547.741587,527,832
66547.741587,527,836
66547.741587,527,832
66547.741587,527,832
66547.741587,528,836
66547.741587,528,832
66547.741587,528,832
66547.754027,528,836
66547.754027,528,832
66547.754027,527,832
66547.754027,527,836
66547.754027,528,832
66547.754027,529,832
66547.754027,529,836
66547.754027,529,832
66547.754027,529,832
66547.754027,529,836
66547.754027,530,832
66547.754027,530,836
66547.754027,530,832
66547.754027,530,832
66547.754027,530,836
66547.754027,530,832
66547.766679,530,832
66547.766679,529,836
66547.766679,529,832
66547.766679,529,832
66547.766679,529,836
66547.766679,528,832
66547.766679,528,832
66547.766679,528,836
66547.766679,528,832
66547.766679,529,832
66547.766679,529,836
66547.766679,530,832
66547.766679,532,832
66547.766679,532,836
66547.766679,534,832
66547.766679,535,832
66547.778116,536,836
66547.778116,537,832
66547.778116,538,832
66547.778116,538,836
66547.778116,538,832
66547.778116,537,832
66547.778116,537,836
66547.778116,536,832
66547.778116,537,832
66547.778116,538,836
66547.778116,539,832
66547.778116,539,836
66547.778116,540,832
66547.778116,541,832
66547.778116,543,836
66547.778116,544,832
66547.79461,545,832
66547.79461,546,836
66547.79461,547,832
66547.79461,547,832
66547.79461,548,836
66547.79461,548,832
66547.79461,548,832
66547.79461,548,836
66547.79461,548,832
66547.79461,548,832
66547.79461,549,836
66547.79461,549,832
66547.79461,550,832
66547.79461,551,836
66547.79461,553,832
66547.79461,554,832
66547.80715,555,836
66547.80715,556,832
66547.80715,557,832
66547.80715,557,836
66547.80715,557,832
66547.80715,557,832
66547.80715,558,836
66547.80715,558,832
66547.80715,558,848
66547.80715,559,820
66547.80715,560,832
66547.80715,561,836
66547.80715,562,832
66547.80715,561,832
66547.80715,561,836
66547.80715,562,832
66547.81955300001,562,832
66547.81955300001,562,836
66547.81955300001,562,832
66547.81955300001,562,832
66547.81955300001,562,836
66547.81955300001,562,832
66547.81955300001,562,832
66547.81955300001,562,836
66547.81955300001,563,832
66547.81955300001,563,832
66547.81955300001,563,836
66547.81955300001,562,832
66547.81955300001,562,832
66547.81955300001,561,836
66547.81955300001,561,832
66547.81955300001,562,832
66547.836092,561,836
66547.836092,561,832
66547.836092,560,832
66547.836092,560,836
66547.836092,560,832
66547.836092,559,832
66547.836092,559,836
66547.836092,559,832
66547.836092,559,832
66547.836092,558,836
66547.836092,558,832
66547.836092,558,836
66547.836092,557,832
66547.836092,557,832
66547.836092,557,836
66547.836092,556,832
66547.848467,555,832
66547.848467,555,836
66547.848467,555,832
66547.848467,554,832
66547.848467,555,836
66547.848467,555,832
66547.848467,556,832
66547.848467,555,836
66547.848467,555,832
66547.848467,555,832
66547.848467,556,836
66547.848467,556,832
66547.848467,558,832
66547.848467,559,836
66547.848467,559,832
66547.848467,560,832
66547.859822,562,836
66547.859822,563,832
66547.859822,566,832
66547.859822,568,836
66547.859822,569,832
66547.859822,570,832
66547.859822,571,836
66547.859822,573,832
66547.859822,575,836
66547.859822,576,832
66547.859822,576,832
66547.859822,575,836
66547.859822,575,832
66547.859822,576,832
66547.859822,576,836
66547.859822,578,832
66547.872531,579,832
66547.872531,580,836
66547.872531,583,832
66547.872531,586,832
66547.872531,589,836
66547.872531,593,832
66547.872531,596,832
66547.872531,600,836
66547.872531,603,832
66547.872531,606,832
66547.872531,609,836
66547.872531,612,832
66547.872531,616,832
66547.872531,620,836
66547.872531,623,832
66547.872531,627,832
66547.88901299999,630,836
66547.88901299999,634,832
66547.88901299999,637,832
66547.88901299999,641,836
66547.88901299999,646,832
66547.88901299999,651,832
66547.88901299999,656,836
66547.88901299999,660,832
66547.88901299999,664,832
66547.88901299999,667,836
66547.88901299999,670,832
66547.88901299999,672,836
66547.88901299999,675,832
66547.88901299999,678,832
66547.88901299999,682,836
66547.88901299999,686,832
66547.901635,689,832
66547.901635,694,836
66547.901635,700,832
66547.901635,705,832
66547.901635,709,836
66547.901635,712,832
66547.901635,716,832
66547.901635,719,836
66547.901635,722,832
66547.901635,726,832
66547.901635,729,836
66547.901635,733,832
66547.901635,737,832
66547.901635,740,836
66547.901635,743,832
66547.901635,747,832
66547.91429,749,836
66547.91429,749,832
66547.91429,751,832
66547.91429,752,836
66547.91429,754,832
66547.91429,756,832
66547.91429,757,836
66547.91429,758,832
66547.91429,759,836
66547.91429,762,832
66547.91429,763,832
66547.91429,764,836
66547.91429,764,832
66547.91429,765,832
66547.91429,766,836
66547.91429,765,832
66547.930736,765,832
66547.930736,766,836
66547.930736,767,832
66547.930736,769,832
66547.930736,770,836
66547.930736,771,832
66547.930736,771,832
66547.930736,770,836
66547.930736,769,832
66547.930736,769,832
66547.930736,769,836
66547.930736,769,832
66547.930736,768,832
66547.930736,767,836
66547.930736,767,832
66547.930736,768,832
66547.942195,768,836
66547.942195,767,832
66547.942195,766,832
66547.942195,766,836
66547.942195,765,832
66547.942195,766,832
66547.942195,765,836
66547.942195,765,832
66547.942195,766,832
66547.942195,767,836
66547.942195,766,832
66547.942195,765,836
66547.942195,764,832
66547.942195,763,832
66547.942195,762,836
66547.942195,761,832
66547.954632,760,832
66547.954632,758,836
66547.954632,756,832
66547.954632,756,832
66547.954632,756,836
66547.954632,756,832
66547.954632,756,832
66547.954632,754,836
66547.954632,753,832
66547.954632,752,832
66547.954632,751,836
66547.954632,749,832
66547.954632,747,832
66547.954632,745,836
66547.954632,744,832
66547.954632,744,832
66547.967235,745,836
66547.967235,744,832
66547.967235,743,832
66547.967235,741,836
66547.967235,740,844
66547.967235,740,820
66547.967235,737,836
66547.967235,734,832
66547.967235,732,836
66547.967235,729,832
66547.967235,727,832
66547.967235,725,836
66547.967235,723,832
66547.967235,722,832
66547.967235,722,836
66547.967235,721,832
66547.983599,719,832
66547.983599,718,836
66547.983599,716,832
66547.983599,715,832
66547.983599,713,836
66547.983599,711,832
66547.983599,710,832
66547.983599,708,836
66547.983599,706,832
66547.983599,703,832
66547.983599,701,836
66547.983599,698,832
66547.983599,696,832
66547.983599,695,836
66547.983599,694,832
66547.983599,693,832
66547.99494799999,692,836
66547.99494799999,691,832
66547.99494799999,689,832
66547.99494799999,687,836
66547.99494799999,684,832
66547.99494799999,682,832
66547.99494799999,680,836
66547.99494799999,679,832
66547.99494799999,678,832
66547.99494799999,676,836
66547.99494799999,673,832
66547.99494799999,671,836
66547.99494799999,668,832
66547.99494799999,665,832
66547.99494799999,663,836
66547.99494799999,660,832
66548.007707,657,832
66548.007707,655,836
66548.007707,654,832
66548.007707,653,832
66548.007707,651,836
66548.007707,650,832
66548.007707,647,832
66548.007707,645,836
66548.007707,642,832
66548.007707,640,832
66548.007707,638,836
66548.007707,636,832
66548.007707,634,832
66548.007707,632,836
66548.007707,630,832
66548.007707,627,832
66548.020448,625,836
66548.020448,623,832
66548.020448,621,832
66548.020448,619,836
66548.020448,619,832
66548.020448,617,832
66548.020448,615,836
66548.020448,613,832
66548.020448,611,836
66548.020448,608,832
66548.020448,606,832
66548.020448,605,836
66548.020448,602,832
66548.020448,601,832
66548.020448,599,836
66548.020448,598,832
66548.032841,596,832
66548.032841,594,836
66548.032841,593,832
66548.032841,592,832
66548.032841,591,836
66548.032841,589,832
66548.032841,588,832
66548.032841,586,836
66548.032841,585,832
66548.032841,583,832
66548.032841,581,836
66548.032841,580,832
66548.032841,579,832
66548.032841,577,836
66548.032841,576,832
66548.032841,574,832
66548.049452,573,836
66548.049452,571,832
66548.049452,570,832
66548.049452,568,836
66548.049452,566,832
66548.049452,565,832
66548.049452,563,836
66548.049452,562,832
66548.049452,561,836
66548.049452,559,832
66548.049452,558,832
66548.049452,557,836
66548.049452,555,832
66548.049452,554,832
66548.049452,553,836
66548.049452,551,832
66548.06063400001,550,832
66548.06063400001,548,836
66548.06063400001,546,832
66548.06063400001,545,832
66548.06063400001,543,836
66548.06063400001,541,832
66548.06063400001,541,832
66548.06063400001,540,836
66548.06063400001,539,832
66548.06063400001,537,832
66548.06063400001,536,836
66548.06063400001,535,832
66548.06063400001,534,832
66548.06063400001,533,836
66548.06063400001,532,832
66548.06063400001,531,832
66548.07328,531,836
66548.07328,530,832
66548.07328,530,832
66548.07328,528,836
66548.07328,527,832
66548.07328,526,832
66548.07328,525,836
66548.07328,524,832
66548.07328,523,836
66548.07328,522,832
66548.07328,522,832
66548.07328,521,836
66548.07328,520,832
66548.07328,520,832
66548.07328,519,836
66548.07328,518,832
66548.08589,518,832
66548.08589,518,836
66548.08589,517,832
66548.08589,516,832
66548.08589,515,836
66548.08589,514,832
66548.08589,513,832
66548.08589,513,836
66548.08589,513,832
66548.08589,512,832
66548.08589,512,836
66548.08589,512,832
66548.08589,511,832
66548.08589,511,836
66548.08589,509,832
66548.08589,508,832
66548.10247900001,507,836
66548.10247900001,507,832
66548.10247900001,507,832
66548.10247900001,506,836
66548.10247900001,506,832
66548.10247900001,505,832
66548.10247900001,504,836
66548.10247900001,503,832
66548.10247900001,503,832
66548.10247900001,502,836
66548.10247900001,501,832
66548.10247900001,501,836
66548.10247900001,500,832
66548.10247900001,500,832
66548.10247900001,499,836
66548.10247900001,499,832
66548.113884,498,832
66548.113884,498,836
66548.113884,496,832
66548.113884,496,832
66548.113884,495,836
66548.113884,494,832
66548.113884,494,832
66548.113884,493,836
66548.113884,493,832
66548.113884,493,832
66548.113884,492,836
66548.113884,491,832
66548.113884,491,832
66548.113884,490,836
66548.113884,491,832
66548.113884,491,832
66548.126556,490,836
66548.126556,490,832
66548.126556,490,832
66548.126556,490,836
66548.126556,490,832
66548.126556,489,832
66548.126556,489,836
66548.126556,488,832
66548.126556,488,832
66548.126556,487,836
66548.126556,487,832
66548.126556,487,836
66548.126556,488,832
66548.126556,487,832
66548.126556,488,836
66548.126556,488,832
66548.138937,489,832
66548.138937,489,836
66548.138937,488,832
66548.138937,489,832
66548.138937,488,836
66548.138937,488,832
66548.138937,488,832
66548.138937,488,836
66548.138937,488,832
66548.138937,488,832
66548.138937,488,836
66548.138937,488,832
66548.138937,487,832
66548.138937,487,836
66548.138937,487,832
66548.138937,486,832
66548.15573099999,487,836
66548.15573099999,487,832
66548.15573099999,487,832
66548.15573099999,487,836
66548.15573099999,486,832
66548.15573099999,486,832
66548.15573099999,485,836
66548.15573099999,485,832
66548.15573099999,486,832
66548.15573099999,486,836
66548.15573099999,486,832
66548.15573099999,486,848
66548.15573099999,486,820
66548.15573099999,486,832
66548.15573099999,486,836
66548.15573099999,486,832
66548.167147,486,832
66548.167147,485,836
66548.167147,485,832
66548.167147,484,832
66548.167147,484,836
66548.167147,484,832
66548.167147,484,832
66548.167147,485,836
66548.167147,485,832
66548.167147,485,832
66548.167147,486,836
66548.167147,485,832
66548.167147,485,832
66548.167147,485,836
66548.167147,485,832
66548.167147,485,832
66548.179968,485,836
66548.179968,484,832
66548.179968,485,832
66548.179968,485,836
66548.179968,485,832
66548.179968,485,832
66548.179968,485,836
66548.179968,485,832
66548.179968,485,832
66548.179968,485,836
66548.179968,486,832
66548.179968,487,836
66548.179968,486,832
66548.179968,486,832
66548.179968,485,836
66548.179968,485,832
66548.192723,485,832
66548.192723,485,836
66548.192723,486,832
66548.192723,487,832
66548.192723,487,836
66548.192723,487,832
66548.192723,486,832
66548.192723,486,836
66548.192723,486,832
66548.192723,487,832
66548.192723,486,836
66548.192723,486,832
66548.192723,487,832
66548.192723,487,836
66548.192723,487,832
66548.192723,488,832
66548.209194,489,836
66548.209194,490,832
66548.209194,489,832
66548.209194,490,836
66548.209194,489,832
66548.209194,489,832
66548.209194,489,836
66548.209194,490,832
66548.209194,490,832
66548.209194,490,836
66548.209194,491,832
66548.209194,491,836
66548.209194,491,832
66548.209194,491,832
66548.209194,491,836
66548.209194,490,832
66548.220635,490,832
66548.220635,490,836
66548.220635,491,832
66548.220635,491,832
66548.220635,492,836
66548.220635,492,832
66548.220635,492,832
66548.220635,492,836
66548.220635,492,832
66548.220635,492,832
66548.220635,492,836
66548.220635,492,832
66548.220635,492,832
66548.220635,493,836
66548.220635,493,832
66548.220635,494,832
66548.233298,494,836
66548.233298,494,832
66548.233298,494,832
66548.233298,494,836
66548.233298,495,832
66548.233298,494,832
66548.233298,495,836
66548.233298,495,832
66548.233298,495,832
66548.233298,495,836
66548.233298,496,832
66548.233298,496,836
66548.233298,497,832
66548.233298,497,832
66548.233298,497,836
66548.233298,497,832
66548.24593199999,497,832
66548.24593199999,498,836
66548.24593199999,498,832
66548.24593199999,498,832
66548.24593199999,499,836
66548.24593199999,499,832
66548.24593199999,500,832
66548.24593199999,500,836
66548.24593199999,500,832
66548.24593199999,500,832
66548.24593199999,499,836
66548.24593199999,499,832
66548.24593199999,500,832
66548.24593199999,500,836
66548.24593199999,500,832
66548.24593199999,500,832
66548.261425,501,836
66548.261425,501,832
66548.261425,501,832
66548.261425,501,836
66548.261425,502,832
66548.261425,501,832
66548.261425,501,836
66548.261425,502,832
66548.261425,502,832
66548.261425,502,836
66548.261425,502,832
66548.261425,502,836
66548.261425,502,832
66548.261425,502,832
66548.261425,502,836
66548.261425,503,832
66548.274143,503,832
66548.274143,504,836
66548.274143,504,832
66548.274143,504,832
66548.274143,504,836
66548.274143,504,832
66548.274143,504,832
66548.274143,504,836
66548.274143,503,832
66548.274143,504,832
66548.274143,504,836
66548.274143,506,832
66548.274143,506,832
66548.274143,507,836
66548.274143,507,832
66548.274143,507,832
66548.286925,508,836
66548.286925,508,832
66548.286925,508,832
66548.286925,508,836
66548.286925,508,832
66548.286925,508,832
66548.286925,509,836
66548.286925,509,832
66548.286925,510,832
66548.286925,510,836
66548.286925,511,832
66548.286925,510,836
66548.286925,511,832
66548.286925,511,832
66548.286925,511,836
66548.286925,511,832
66548.303482,511,832
66548.303482,511,836
66548.303482,511,832
66548.303482,511,832
66548.303482,511,836
66548.303482,511,832
66548.303482,511,832
66548.303482,511,836
66548.303482,511,832
66548.303482,511,832
66548.303482,511,836
66548.303482,511,832
66548.303482,512,832
66548.303482,512,836
66548.303482,513,832
66548.303482,513,832
66548.314941,513,836
66548.314941,512,832
66548.314941,513,832
66548.314941,513,836
66548.314941,513,832
66548.314941,513,832
66548.314941,514,836
66548.314941,515,836
66548.314941,515,828
66548.314941,515,836
66548.314941,514,832
66548.314941,514,836
66548.314941,514,832
66548.314941,515,832
66548.314941,514,836
66548.314941,515,832
66548.32760599999,515,832
66548.32760599999,514,836
66548.32760599999,514,832
66548.32760599999,515,832
66548.32760599999,515,836
66548.32760599999,516,832
66548.32760599999,516,832
66548.32760599999,516,836
66548.32760599999,516,832
66548.32760599999,516,832
66548.32760599999,517,836
66548.32760599999,516,832
66548.32760599999,515,832
66548.32760599999,516,836
66548.32760599999,516,832
66548.32760599999,516,832
66548.339076,517,836
66548.339076,517,832
66548.339076,517,832
66548.339076,517,836
66548.339076,518,832
66548.339076,518,832
66548.339076,519,836
66548.339076,519,832
66548.339076,519,832
66548.339076,518,836
66548.339076,518,832
66548.339076,518,836
66548.339076,519,832
66548.339076,519,832
66548.339076,519,836
66548.339076,519,832
66548.35681499999,519,832
66548.35681499999,519,836
66548.35681499999,519,832
66548.35681499999,520,832
66548.35681499999,519,836
66548.35681499999,520,832
66548.35681499999,520,832
66548.35681499999,520,836
66548.35681499999,521,832
66548.35681499999,521,832
66548.35681499999,521,836
66548.35681499999,522,832
66548.35681499999,522,832
66548.35681499999,523,836
66548.35681499999,524,832
66548.35681499999,524,832
66548.368231,524,836
66548.368231,524,832
66548.368231,525,832
66548.368231,525,836
66548.368231,525,832
66548.368231,525,832
66548.368231,526,836
66548.368231,526,832
66548.368231,526,832
66548.368231,526,836
66548.368231,526,832
66548.368231,527,836
66548.368231,527,832
66548.368231,527,832
66548.368231,528,836
66548.368231,527,832
66548.38058699999,527,832
66548.38058699999,527,836
66548.38058699999,526,832
66548.38058699999,526,832
66548.38058699999,526,836
66548.38058699999,526,832
66548.38058699999,526,832
66548.38058699999,526,836
66548.38058699999,527,832
66548.38058699999,527,832
66548.38058699999,527,836
66548.38058699999,527,832
66548.38058699999,527,832
66548.38058699999,528,836
66548.38058699999,529,832
66548.38058699999,530,832
66548.397018,532,836
66548.397018,534,832
66548.397018,536,832
66548.397018,538,836
66548.397018,540,832
66548.397018,540,832
66548.397018,541,836
66548.397018,540,832
66548.397018,539,836
66548.397018,537,832
66548.397018,536,832
66548.397018,534,836
66548.397018,532,832
66548.397018,531,832
66548.397018,530,836
66548.397018,530,832
66548.409657,529,832
66548.409657,528,836
66548.409657,527,832
66548.409657,527,832
66548.409657,526,836
66548.409657,525,832
66548.409657,525,832
66548.409657,523,836
66548.409657,522,832
66548.409657,521,832
66548.409657,520,836
66548.409657,519,832
66548.409657,519,832
66548.409657,518,836
66548.409657,518,832
66548.409657,518,832
66548.421077,517,836
66548.421077,516,832
66548.421077,514,832
66548.421077,513,836
66548.421077,512,832
66548.421077,511,832
66548.421077,510,836
66548.421077,509,832
66548.421077,507,832
66548.421077,506,836
66548.421077,504,832
66548.421077,503,836
66548.421077,501,832
66548.421077,500,832
66548.421077,497,836
66548.421077,495,832
66548.433741,493,832
66548.433741,491,836
66548.433741,490,832
66548.433741,488,832
66548.433741,487,836
66548.433741,486,832
66548.433741,484,832
66548.433741,483,836
66548.433741,481,832
66548.433741,479,832
66548.433741,477,836
66548.433741,475,832
66548.433741,473,832
66548.433741,472,836
66548.433741,470,832
66548.433741,468,832
66548.450176,466,836
66548.450176,463,832
66548.450176,461,832
66548.450176,459,836
66548.450176,456,832
66548.450176,454,832
66548.450176,451,836
66548.450176,449,832
66548.450176,446,832
66548.450176,443,836
66548.450176,440,832
66548.450176,437,836
66548.450176,434,832
66548.450176,432,832
66548.450176,429,836
66548.450176,427,832
66548.462835,424,832
66548.462835,421,836
66548.462835,419,832
66548.462835,417,832
66548.462835,415,836
66548.462835,413,832
66548.462835,411,832
66548.462835,408,836
66548.462835,406,832
66548.462835,403,832
66548.462835,399,836
66548.462835,396,832
66548.462835,392,832
66548.462835,389,836
66548.462835,386,832
66548.462835,382,832
66548.474284,380,836
66548.474284,377,832
66548.474284,374,832
66548.474284,371,836
66548.474284,369,832
66548.474284,366,832
66548.474284,363,836
66548.474284,359,832
66548.474284,356,832
66548.474284,353,836
66548.474284,350,832
66548.474284,347,836
66548.474284,343,832
66548.474284,339,832
66548.474284,336,836
66548.474284,332,832
66548.48689100001,329,832
66548.48689100001,326,836
66548.48689100001,323,832
66548.48689100001,319,832
66548.48689100001,315,836
66548.48689100001,311,832
66548.48689100001,307,832
66548.48689100001,304,836
66548.48689100001,300,832
66548.48689100001,296,832
66548.48689100001,293,836
66548.48689100001,290,832
66548.48689100001,287,832
66548.48689100001,284,836
66548.48689100001,280,832
66548.48689100001,277,832
66548.503243,273,836
66548.503243,269,832
66548.503243,266,832
66548.503243,262,836
66548.503243,258,832
66548.503243,255,832
66548.503243,251,836
66548.503243,247,832
66548.503243,243,836
66548.503243,239,832
66548.503243,236,832
66548.503243,234,836
66548.503243,231,832
66548.503243,229,832
66548.503243,226,848
66548.503243,223,820
66548.51588400001,220,832
66548.51588400001,217,836
66548.51588400001,215,832
66548.51588400001,213,832
66548.51588400001,210,836
66548.51588400001,208,832
66548.51588400001,206,832
66548.51588400001,203,836
66548.51588400001,200,832
66548.51588400001,197,832
66548.51588400001,194,836
66548.51588400001,191,832
66548.51588400001,189,832
66548.51588400001,186,836
66548.51588400001,183,832
66548.51588400001,180,832
66548.528624,178,836
66548.528624,177,832
66548.528624,175,832
66548.528624,173,836
66548.528624,171,832
66548.528624,169,832
66548.528624,166,836
66548.528624,164,832
66548.528624,161,832
66548.528624,158,836
66548.528624,156,832
66548.528624,154,836
66548.528624,151,832
66548.528624,148,832
66548.528624,146,836
66548.528624,144,832
66548.539819,142,832
66548.539819,140,836
66548.539819,137,832
66548.539819,136,832
66548.539819,134,836
66548.539819,132,832
66548.539819,130,832
66548.539819,128,836
66548.539819,126,832
66548.539819,125,832
66548.539819,123,836
66548.539819,121,832
66548.539819,120,832
66548.539819,118,836
66548.539819,117,832
66548.539819,115,832
66548.55626,113,836
66548.55626,112,832
66548.55626,111,832
66548.55626,110,836
66548.55626,109,832
66548.55626,107,832
66548.55626,106,836
66548.55626,104,832
66548.55626,103,836
66548.55626,102,832
66548.55626,101,832
66548.55626,101,836
66548.55626,100,832
66548.55626,99,832
66548.55626,98,836
66548.55626,97,832
66548.55626,95,836
66548.568925,94,832
66548.568925,92,832
66548.568925,91,832
66548.568925,90,836
66548.568925,89,840
66548.568925,87,824
66548.568925,86,836
66548.568925,85,832
66548.568925,85,832
66548.568925,85,836
66548.568925,84,832
66548.568925,84,832
66548.568925,84,836
66548.568925,83,832
66548.568925,83,832
66548.568925,82,840
66548.568925,82,828
66548.568925,81,832
66548.585772,82,836
66548.585772,82,832
66548.585772,81,840
66548.585772,81,828
66548.585772,80,832
66548.585772,80,832
66548.585772,80,836
66548.585772,80,832
66548.585772,80,836
66548.585772,79,832
66548.585772,78,832
66548.585772,77,836
66548.585772,77,832
66548.585772,77,840
66548.585772,78,828
66548.585772,79,832
66548.585772,80,832
66548.585772,80,836
66548.585772,80,832
66548.60233200001,81,840
66548.60233200001,80,832
66548.60233200001,79,832
66548.60233200001,80,828
66548.60233200001,80,836
66548.60233200001,80,832
66548.60233200001,80,832
66548.60233200001,79,836
66548.60233200001,80,832
66548.60233200001,80,832
66548.60233200001,79,840
66548.60233200001,79,828
66548.60233200001,79,832
66548.60233200001,79,836
66548.60233200001,79,832
66548.60233200001,79,836
66548.60233200001,79,836
66548.60233200001,79,832
66548.613744,79,832
66548.613744,79,832
66548.613744,80,832
66548.613744,81,836
66548.613744,81,832
66548.613744,82,832
66548.613744,81,836
66548.613744,82,832
66548.613744,81,836
66548.613744,81,832
66548.613744,82,832
66548.613744,82,832
66548.613744,82,836
66548.613744,83,832
66548.613744,84,840
66548.613744,84,832
66548.613744,84,832
66548.613744,84,828
66548.630154,85,836
66548.630154,86,832
66548.630154,87,832
66548.630154,87,836
66548.630154,88,832
66548.630154,89,840
66548.630154,89,832
66548.630154,91,828
66548.630154,92,832
66548.630154,92,836
66548.630154,94,832
66548.630154,95,836
66548.630154,96,836
66548.630154,97,832
66548.630154,98,832
66548.630154,100,832
66548.630154,101,832
66548.630154,102,836
66548.646696,103,832
66548.646696,105,832
66548.646696,106,836
66548.646696,108,832
66548.646696,109,832
66548.646696,109,836
66548.646696,110,832
66548.646696,111,832
66548.646696,113,836
66548.646696,113,832
66548.646696,115,832
66548.646696,116,836
66548.646696,117,832
66548.646696,119,832
66548.646696,120,836
66548.646696,121,832
66548.659365,122,832
66548.659365,123,836
66548.659365,125,832
66548.659365,126,832
66548.659365,128,836
66548.659365,128,832
66548.659365,130,832
66548.659365,131,836
66548.659365,132,832
66548.659365,133,832
66548.659365,135,836
66548.659365,136,832
66548.659365,137,832
66548.659365,138,836
66548.659365,139,844
66548.659365,140,824
66548.671945,141,832
66548.671945,142,832
66548.671945,143,836
66548.671945,144,832
66548.671945,146,832
66548.671945,147,836
66548.671945,147,832
66548.671945,149,832
66548.671945,150,836
66548.671945,151,832
66548.671945,152,832
66548.671945,153,836
66548.671945,155,832
66548.671945,156,832
66548.671945,157,836
66548.671945,159,832
66548.683291,160,832
66548.683291,161,836
66548.683291,162,832
66548.683291,163,832
66548.683291,165,836
66548.683291,166,832
66548.683291,167,832
66548.683291,169,836
66548.683291,170,832
66548.683291,171,832
66548.683291,172,836
66548.683291,174,832
66548.683291,175,836
66548.683291,176,832
66548.683291,177,832
66548.683291,179,836
66548.699738,179,832
66548.699738,180,832
66548.699738,181,836
66548.699738,181,832
66548.699738,182,832
66548.699738,183,836
66548.699738,184,832
66548.699738,185,832
66548.699738,185,836
66548.699738,187,832
66548.699738,188,832
66548.699738,189,836
66548.699738,189,832
66548.699738,190,832
66548.699738,190,836
66548.699738,191,832
66548.71235100001,193,832
66548.71235100001,193,836
66548.71235100001,194,832
66548.71235100001,195,832
66548.71235100001,196,836
66548.71235100001,196,832
66548.71235100001,198,832
66548.71235100001,198,836
66548.71235100001,199,832
66548.71235100001,200,832
66548.71235100001,201,836
66548.71235100001,202,832
66548.71235100001,203,832
66548.71235100001,204,836
66548.71235100001,204,832
66548.71235100001,206,836
66548.725007,207,832
66548.725007,208,832
66548.725007,209,836
66548.725007,209,832
66548.725007,210,832
66548.725007,211,836
66548.725007,211,832
66548.725007,212,832
66548.725007,213,836
66548.725007,214,832
66548.725007,214,832
66548.725007,215,836
66548.725007,216,832
66548.725007,216,832
66548.725007,217,836
66548.725007,218,832
66548.73642,219,832
66548.73642,220,836
66548.73642,221,832
66548.73642,221,832
66548.73642,222,836
66548.73642,223,832
66548.73642,223,832
66548.73642,224,836
66548.73642,225,832
66548.73642,225,832
66548.73642,226,836
66548.73642,227,832
66548.73642,228,836
66548.73642,228,832
66548.73642,229,832
66548.73642,230,836
66548.752931,231,832
66548.752931,231,832
66548.752931,232,836
66548.752931,233,832
66548.752931,234,832
66548.752931,234,836
66548.752931,235,832
66548.752931,236,832
66548.752931,236,836
66548.752931,236,832
66548.752931,237,832
66548.752931,238,836
66548.752931,238,832
66548.752931,239,832
66548.752931,240,836
66548.752931,241,832
66548.765692,242,832
66548.765692,242,836
66548.765692,243,832
66548.765692,244,832
66548.765692,245,836
66548.765692,246,832
66548.765692,246,832
66548.765692,247,836
66548.765692,247,832
66548.765692,248,832
66548.765692,249,836
66548.765692,249,832
66548.765692,250,836
66548.765692,251,832
66548.765692,252,832
66548.765692,253,836
66548.778479,254,832
66548.778479,254,832
66548.778479,254,836
66548.778479,254,832
66548.778479,255,832
66548.778479,256,836
66548.778479,256,832
66548.778479,257,832
66548.778479,258,836
66548.778479,259,832
66548.778479,259,832
66548.778479,260,836
66548.778479,260,832
66548.778479,260,832
66548.778479,262,836
66548.778479,262,832
66548.790186,263,832
66548.790186,263,836
66548.790186,263,832
66548.790186,264,832
66548.790186,265,836
66548.790186,265,832
66548.790186,266,832
66548.790186,267,836
66548.790186,267,832
66548.790186,268,832
66548.790186,268,836
66548.790186,269,832
66548.790186,270,836
66548.790186,271,832
66548.790186,271,832
66548.790186,272,836
66548.802916,273,832
66548.802916,273,832
66548.802916,275,836
66548.802916,276,832
66548.802916,277,832
66548.802916,278,836
66548.802916,278,832
66548.802916,278,832
66548.802916,279,836
66548.802916,280,832
66548.802916,281,832
66548.802916,282,836
66548.802916,282,832
66548.802916,283,832
66548.802916,283,836
66548.802916,284,832
66548.81935199999,285,832
66548.81935199999,285,836
66548.81935199999,286,832
66548.81935199999,286,832
66548.81935199999,287,836
66548.81935199999,288,832
66548.81935199999,288,832
66548.81935199999,289,836
66548.81935199999,289,832
66548.81935199999,290,832
66548.81935199999,291,836
66548.81935199999,291,832
66548.81935199999,291,836
66548.81935199999,292,832
66548.81935199999,292,832
66548.81935199999,293,836
66548.83067899999,294,832
66548.83067899999,294,832
66548.83067899999,295,836
66548.83067899999,296,832
66548.83067899999,296,832
66548.83067899999,297,836
66548.83067899999,297,832
66548.83067899999,298,832
66548.83067899999,298,836
66548.83067899999,299,832
66548.83067899999,300,832
66548.83067899999,300,836
66548.83067899999,300,832
66548.83067899999,301,832
66548.83067899999,301,836
66548.83067899999,301,832
66548.84336,302,832
66548.84336,302,836
66548.84336,302,832
66548.84336,303,832
66548.84336,304,836
66548.84336,304,832
66548.84336,305,832
66548.84336,305,836
66548.84336,305,832
66548.84336,305,832
66548.84336,305,836
66548.84336,306,832
66548.84336,307,832
66548.84336,307,836
66548.84336,307,832
66548.84336,307,836
66548.856065,307,832
66548.856065,308,832
66548.856065,308,836
66548.856065,309,832
66548.856065,309,832
66548.856065,309,848
66548.856065,309,820
66548.856065,310,832
66548.856065,310,836
66548.856065,311,832
66548.856065,311,832
66548.856065,311,836
66548.856065,311,832
66548.856065,312,832
66548.856065,312,836
66548.856065,312,832
66548.872511,313,832
66548.872511,313,836
66548.872511,313,832
66548.872511,314,832
66548.872511,315,836
66548.872511,316,832
66548.872511,318,832
66548.872511,320,836
66548.872511,322,832
66548.872511,324,832
66548.872511,325,836
66548.872511,327,832
66548.872511,329,836
66548.872511,331,832
66548.872511,332,832
66548.872511,334,836
66548.883903,335,832
66548.883903,336,832
66548.883903,337,836
66548.883903,339,832
66548.883903,340,832
66548.883903,343,836
66548.883903,345,832
66548.883903,347,832
66548.883903,350,836
66548.883903,354,832
66548.883903,358,832
66548.883903,363,836
66548.883903,368,832
66548.883903,373,832
66548.883903,378,836
66548.883903,384,832
66548.896671,389,832
66548.896671,395,836
66548.896671,399,832
66548.896671,405,832
66548.896671,411,836
66548.896671,417,832
66548.896671,423,832
66548.896671,429,836
66548.896671,435,832
66548.896671,442,832
66548.896671,449,836
66548.896671,455,832
66548.896671,462,836
66548.896671,468,832
66548.896671,473,832
66548.896671,478,836
66548.909154,485,832
66548.909154,491,832
66548.909154,497,836
66548.909154,504,832
66548.909154,511,832
66548.909154,517,836
66548.909154,524,832
66548.909154,530,832
66548.909154,537,836
66548.909154,544,832
66548.909154,551,832
66548.909154,558,836
66548.909154,565,832
66548.909154,572,832
66548.909154,578,836
66548.909154,584,832
66548.925565,590,832
66548.925565,595,836
66548.925565,600,832
66548.925565,605,832
66548.925565,610,836
66548.925565,616,832
66548.925565,622,832
66548.925565,627,836
66548.925565,633,832
66548.925565,638,832
66548.925565,643,836
66548.925565,648,832
66548.925565,652,832
66548.925565,656,836
66548.925565,660,832
66548.925565,663,836
66548.938062,667,832
66548.938062,670,832
66548.938062,673,836
66548.938062,676,832
66548.938062,679,832
66548.938062,681,836
66548.938062,683,832
66548.938062,685,832
66548.938062,688,836
66548.938062,691,832
66548.938062,693,832
66548.938062,695,836
66548.938062,697,832
66548.938062,697,832
66548.938062,698,836
66548.938062,699,832
66548.949481,699,832
66548.949481,700,836
66548.949481,700,832
66548.949481,701,832
66548.949481,701,836
66548.949481,702,832
66548.949481,702,832
66548.949481,702,836
66548.949481,702,832
66548.949481,702,832
66548.949481,702,836
66548.949481,702,832
66548.949481,702,832
66548.949481,701,836
66548.949481,700,832
66548.949481,700,836
66548.966002,700,832
66548.966002,699,832
66548.966002,699,836
66548.966002,698,832
66548.966002,697,832
66548.966002,697,836
66548.966002,696,832
66548.966002,696,832
66548.966002,695,836
66548.966002,695,832
66548.966002,694,832
66548.966002,694,836
66548.966002,693,832
66548.966002,692,832
66548.966002,692,836
66548.966002,691,832
66548.97871899999,690,832
66548.97871899999,690,836
66548.97871899999,689,832
66548.97871899999,689,832
66548.97871899999,689,836
66548.97871899999,688,832
66548.97871899999,688,832
66548.97871899999,688,836
66548.97871899999,687,832
66548.97871899999,687,832
66548.97871899999,687,836
66548.97871899999,687,832
66548.97871899999,687,832
66548.97871899999,687,836
66548.97871899999,686,832
66548.97871899999,685,836
66548.991839,685,832
66548.991839,685,832
66548.991839,685,836
66548.991839,685,832
66548.991839,685,832
66548.991839,684,836
66548.991839,684,832
66548.991839,683,832
66548.991839,683,836
66548.991839,683,832
66548.991839,682,832
66548.991839,681,836
66548.991839,681,832
66548.991839,680,832
66548.991839,680,836
66548.991839,680,832
66549.003975,680,832
66549.003975,680,836
66549.003975,679,832
66549.003975,679,832
66549.003975,679,836
66549.003975,678,832
66549.003975,678,832
66549.003975,677,836
66549.003975,676,832
66549.003975,676,832
66549.003975,676,836
66549.003975,675,832
66549.003975,675,836
66549.003975,675,832
66549.003975,675,832
66549.003975,675,836
66549.019075,675,832
66549.019075,675,836
66549.019075,674,832
66549.019075,674,832
66549.019075,674,832
66549.019075,674,836
66549.019075,674,832
66549.019075,674,832
66549.019075,673,836
66549.019075,673,832
66549.019075,673,832
66549.019075,673,836
66549.019075,673,832
66549.019075,673,832
66549.019075,672,836
66549.019075,672,832
66549.031468,671,832
66549.031468,671,836
66549.031468,671,832
66549.031468,671,832
66549.031468,670,836
66549.031468,670,832
66549.031468,669,832
66549.031468,669,836
66549.031468,669,832
66549.031468,669,832
66549.031468,668,836
66549.031468,668,832
66549.031468,668,836
66549.031468,667,832
66549.031468,666,832
66549.031468,666,836
66549.044225,665,832
66549.044225,665,832
66549.044225,664,836
66549.044225,664,832
66549.044225,664,832
66549.044225,663,836
66549.044225,663,832
66549.044225,662,832
66549.044225,662,836
66549.044225,662,832
66549.044225,662,832
66549.044225,662,836
66549.044225,662,832
66549.044225,661,832
66549.044225,662,836
66549.044225,662,832
66549.060524,661,832
66549.060524,661,836
66549.060524,661,832
66549.060524,660,832
66549.060524,660,836
66549.060524,660,832
66549.060524,659,832
66549.060524,659,836
66549.060524,658,832
66549.060524,657,832
66549.060524,657,836
66549.060524,657,832
66549.060524,656,836
66549.060524,656,832
66549.060524,656,832
66549.060524,656,836
66549.07325100001,655,832
66549.07325100001,655,832
66549.07325100001,654,836
66549.07325100001,654,832
66549.07325100001,654,832
66549.07325100001,654,836
66549.07325100001,654,832
66549.07325100001,654,832
66549.07325100001,654,836
66549.07325100001,653,832
66549.07325100001,653,832
66549.07325100001,653,836
66549.07325100001,653,832
66549.07325100001,653,832
66549.07325100001,653,836
66549.07325100001,653,832
66549.084732,652,832
66549.084732,652,836
66549.084732,652,832
66549.084732,652,832
66549.084732,652,836
66549.084732,652,832
66549.084732,652,832
66549.084732,652,836
66549.084732,653,832
66549.084732,653,832
66549.084732,653,836
66549.084732,653,832
66549.084732,653,836
66549.084732,654,832
66549.084732,654,832
66549.084732,655,836
66549.09732500001,655,832
66549.09732500001,655,832
66549.09732500001,655,836
66549.09732500001,655,832
66549.09732500001,655,832
66549.09732500001,654,836
66549.09732500001,654,832
66549.09732500001,655,832
66549.09732500001,655,836
66549.09732500001,655,832
66549.09732500001,655,832
66549.09732500001,654,836
66549.09732500001,654,832
66549.09732500001,654,832
66549.09732500001,654,836
66549.09732500001,655,832
66549.113896,654,832
66549.113896,655,836
66549.113896,655,832
66549.113896,657,832
66549.113896,658,836
66549.113896,659,832
66549.113896,659,832
66549.113896,658,836
66549.113896,658,832
66549.113896,659,832
66549.113896,659,836
66549.113896,658,832
66549.113896,658,836
66549.113896,659,832
66549.113896,662,832
66549.113896,664,836
66549.12618199999,666,832
66549.12618199999,666,832
66549.12618199999,666,836
66549.12618199999,667,832
66549.12618199999,667,832
66549.12618199999,668,836
66549.12618199999,666,832
66549.12618199999,665,832
66549.12618199999,668,836
66549.12618199999,671,832
66549.12618199999,676,832
66549.12618199999,679,836
66549.12618199999,679,832
66549.12618199999,677,832
66549.12618199999,678,836
66549.12618199999,683,832
66549.138711,689,832
66549.138711,691,836
66549.138711,690,832
66549.138711,689,832
66549.138711,691,836
66549.138711,697,832
66549.138711,701,832
66549.138711,707,836
66549.138711,714,832
66549.138711,718,832
66549.138711,723,836
66549.138711,724,832
66549.138711,726,836
66549.138711,730,832
66549.138711,736,832
66549.138711,743,836
66549.150123,753,832
66549.150123,762,832
66549.150123,767,836
66549.150123,771,832
66549.150123,775,832
66549.150123,781,836
66549.150123,788,832
66549.150123,796,832
66549.150123,804,836
66549.150123,811,832
66549.150123,817,832
66549.150123,825,836
66549.150123,833,832
66549.150123,844,832
66549.150123,857,836
66549.150123,863,832
66549.166576,870,832
66549.166576,876,836
66549.166576,880,832
66549.166576,886,832
66549.166576,893,836
66549.166576,902,832
66549.166576,909,832
66549.166576,919,836
66549.166576,926,832
66549.166576,929,832
66549.166576,932,836
66549.166576,935,832
66549.166576,940,836
66549.166576,945,832
66549.166576,951,832
66549.166576,958,836
66549.17921100001,962,832
66549.17921100001,966,832
66549.17921100001,971,836
66549.17921100001,974,832
66549.17921100001,977,832
66549.17921100001,979,836
66549.17921100001,982,832
66549.17921100001,985,832
66549.17921100001,989,836
66549.17921100001,992,832
66549.17921100001,995,832
66549.17921100001,999,836
66549.17921100001,1002,832
66549.17921100001,1005,832
66549.17921100001,1010,836
66549.19193100001,1015,832
66549.19193100001,1015,832
66549.19193100001,1014,836
66549.19193100001,1014,832
66549.19193100001,1013,832
66549.19193100001,1013,836
66549.19193100001,1013,832
66549.19193100001,1013,832
66549.19193100001,1014,836
66549.19193100001,1015,832
66549.19193100001,1016,832
66549.19193100001,1017,836
66549.19193100001,1018,832
66549.19193100001,1018,836
66549.19193100001,1019,832
66549.202836,1018,832
66549.202836,1018,836
66549.202836,1018,832
66549.202836,1016,832
66549.202836,1016,836
66549.202836,1015,832
66549.202836,1016,832
66549.202836,1016,836
66549.202836,1015,832
66549.202836,1014,832
66549.202836,1013,840
66549.202836,1013,828
66549.202836,1012,832
66549.202836,1011,836
66549.212641,1009,832
66549.212641,1007,832
66549.212641,1005,836
66549.212641,1003,832
66549.212641,1001,832
66549.212641,999,836
66549.212641,996,832
66549.212641,994,832
66549.212641,992,836
66549.212641,989,832
66549.212641,985,832
66549.212641,982,836
66549.212641,978,832
66549.212641,974,832
66549.212641,970,836
66549.229046,966,832
66549.229046,962,836
66549.229046,957,832
66549.229046,953,832
66549.229046,948,836
66549.229046,944,832
66549.229046,939,832
66549.229046,934,836
66549.229046,929,832
66549.229046,923,832
66549.229046,918,836
66549.229046,912,832
66549.229046,907,832
66549.229046,901,836
66549.229046,895,832
66549.229046,889,832
66549.240419,882,836
66549.240419,876,832
66549.240419,870,832
66549.240419,863,836
66549.240419,857,832
66549.240419,851,832
66549.240419,845,836
66549.240419,839,832
66549.240419,833,832
66549.240419,826,836
66549.240419,820,832
66549.240419,814,832
66549.240419,807,836
66549.240419,801,832
66549.240419,794,832
66549.240419,788,836
66549.252867,781,832
66549.252867,776,832
66549.252867,770,836
66549.252867,765,832
66549.252867,759,836
66549.252867,753,832
66549.252867,747,832
66549.252867,742,836
66549.252867,736,832
66549.252867,730,832
66549.252867,725,836
66549.252867,719,832
66549.252867,714,832
66549.252867,709,836
66549.252867,705,832
66549.252867,701,832
66549.26565999999,696,836
66549.26565999999,691,832
66549.26565999999,687,832
66549.26565999999,682,836
66549.26565999999,678,832
66549.26565999999,675,832
66549.26565999999,671,836
66549.26565999999,668,832
66549.26565999999,664,832
66549.26565999999,661,836
66549.26565999999,657,832
66549.26565999999,654,832
66549.26565999999,651,836
66549.26565999999,648,832
66549.26565999999,645,832
66549.26565999999,643,836
66549.28207100001,641,832
66549.28207100001,638,832
66549.28207100001,636,836
66549.28207100001,633,832
66549.28207100001,631,836
66549.28207100001,629,832
66549.28207100001,627,832
66549.28207100001,624,836
66549.28207100001,622,832
66549.28207100001,620,832
66549.28207100001,618,836
66549.28207100001,616,832
66549.28207100001,614,832
66549.28207100001,612,836
66549.28207100001,610,832
66549.28207100001,607,832
66549.293546,605,836
66549.293546,603,832
66549.293546,600,832
66549.293546,598,836
66549.293546,595,832
66549.293546,593,832
66549.293546,591,836
66549.293546,589,832
66549.293546,587,832
66549.293546,584,836
66549.293546,582,832
66549.293546,581,832
66549.293546,579,836
66549.293546,576,832
66549.293546,574,832
66549.293546,572,836
66549.306139,570,832
66549.306139,568,836
66549.306139,567,832
66549.306139,566,832
66549.306139,563,836
66549.306139,561,832
66549.306139,559,832
66549.306139,557,836
66549.306139,556,832
66549.306139,554,832
66549.306139,553,836
66549.306139,551,832
66549.306139,549,832
66549.306139,548,836
66549.306139,547,832
66549.306139,546,832
66549.323355,545,836
66549.323355,543,832
66549.323355,542,832
66549.323355,540,836
66549.323355,539,832
66549.323355,538,832
66549.323355,536,836
66549.323355,535,832
66549.323355,534,832
66549.323355,532,836
66549.323355,531,832
66549.323355,530,832
66549.323355,529,836
66549.323355,528,832
66549.323355,527,832
66549.323355,527,836
66549.33564800001,526,832
66549.33564800001,525,832
66549.33564800001,524,836
66549.33564800001,523,832
66549.33564800001,522,836
66549.33564800001,522,832
66549.33564800001,521,832
66549.33564800001,520,836
66549.33564800001,519,832
66549.33564800001,518,832
66549.33564800001,517,836
66549.33564800001,517,832
66549.33564800001,516,832
66549.33564800001,516,836
66549.33564800001,515,832
66549.33564800001,515,832
66549.347053,514,836
66549.347053,514,832
66549.347053,513,832
66549.347053,512,836
66549.347053,510,832
66549.347053,509,832
66549.347053,508,836
66549.347053,508,832
66549.347053,507,832
66549.347053,507,836
66549.347053,507,832
66549.347053,506,832
66549.347053,505,836
66549.347053,505,832
66549.347053,504,832
66549.347053,503,836
66549.359931,503,832
66549.359931,503,836
66549.359931,502,832
66549.359931,501,832
66549.359931,501,836
66549.359931,500,832
66549.359931,500,832
66549.359931,499,836
66549.359931,498,832
66549.359931,497,836
66549.359931,496,832
66549.359931,496,832
66549.359931,495,832
66549.359931,494,836
66549.359931,493,832
66549.359931,492,832
66549.376323,492,836
66549.376323,491,832
66549.376323,490,832
66549.376323,490,836
66549.376323,489,832
66549.376323,488,832
66549.376323,488,836
66549.376323,488,832
66549.376323,487,832
66549.376323,487,836
66549.376323,487,832
66549.376323,486,832
66549.376323,486,836
66549.376323,485,832
66549.376323,485,832
66549.376323,484,836
66549.38892099999,484,832
66549.38892099999,483,836
66549.38892099999,483,832
66549.38892099999,482,832
66549.38892099999,481,836
66549.38892099999,481,832
66549.38892099999,481,832
66549.38892099999,479,836
66549.38892099999,478,832
66549.38892099999,478,832
66549.38892099999,477,836
66549.38892099999,477,832
66549.38892099999,476,832
66549.38892099999,476,836
66549.38892099999,475,832
66549.38892099999,475,832
66549.400352,474,836
66549.400352,473,832
66549.400352,473,832
66549.400352,473,836
66549.400352,473,832
66549.400352,473,832
66549.400352,472,836
66549.400352,472,832
66549.400352,471,832
66549.400352,471,836
66549.400352,472,832
66549.400352,471,832
66549.400352,471,836
66549.400352,471,832
66549.400352,472,832
66549.400352,472,836
66549.416835,471,832
66549.416835,471,832
66549.416835,471,836
66549.416835,471,832
66549.416835,471,836
66549.416835,471,832
66549.416835,472,832
66549.416835,471,836
66549.416835,471,832
66549.416835,471,832
66549.416835,471,836
66549.416835,470,832
66549.416835,470,832
66549.416835,470,836
66549.416835,470,832
66549.416835,470,832
66549.42929500001,470,836
66549.42929500001,470,832
66549.42929500001,470,832
66549.42929500001,470,836
66549.42929500001,470,832
66549.42929500001,470,832
66549.42929500001,470,836
66549.42929500001,469,832
66549.42929500001,469,832
66549.42929500001,468,836
66549.42929500001,468,832
66549.42929500001,468,832
66549.42929500001,468,836
66549.42929500001,468,832
66549.42929500001,468,832
66549.42929500001,468,836
66549.44186,468,832
66549.44186,468,832
66549.44186,467,836
66549.44186,467,832
66549.44186,467,836
66549.44186,467,832
66549.44186,467,832
66549.44186,467,836
66549.44186,467,832
66549.44186,466,832
66549.44186,467,836
66549.44186,467,832
66549.44186,467,832
66549.44186,468,836
66549.44186,468,832
66549.44186,467,832
66549.453229,468,836
66549.453229,467,832
66549.453229,467,832
66549.453229,466,836
66549.453229,466,832
66549.453229,465,832
66549.453229,465,836
66549.453229,465,832
66549.453229,465,832
66549.453229,465,836
66549.453229,465,832
66549.453229,465,832
66549.453229,465,836
66549.453229,465,832
66549.453229,465,832
66549.453229,465,836
66549.469693,466,832
66549.469693,466,836
66549.469693,466,832
66549.469693,467,832
66549.469693,467,836
66549.469693,467,832
66549.469693,467,832
66549.469693,467,836
66549.469693,466,832
66549.469693,466,832
66549.469693,466,836
66549.469693,466,832
66549.469693,466,832
66549.469693,466,836
66549.469693,466,832
66549.469693,466,832
66549.482424,466,836
66549.482424,466,832
66549.482424,466,832
66549.482424,466,836
66549.482424,467,832
66549.482424,468,832
66549.482424,467,836
66549.482424,467,832
66549.482424,468,832
66549.482424,468,836
66549.482424,469,832
66549.482424,470,832
66549.482424,470,836
66549.482424,471,832
66549.482424,471,832
66549.482424,471,836
66549.495096,470,832
66549.495096,469,832
66549.495096,468,836
66549.495096,467,832
66549.495096,465,836
66549.495096,464,832
66549.495096,463,832
66549.495096,463,836
66549.495096,462,832
66549.495096,462,832
66549.495096,462,836
66549.495096,461,832
66549.495096,461,832
66549.495096,460,836
66549.495096,460,832
66549.495096,459,832
66549.50642199999,460,836
66549.50642199999,460,832
66549.50642199999,459,832
66549.50642199999,459,836
66549.50642199999,459,832
66549.50642199999,458,832
66549.50642199999,458,836
66549.50642199999,459,832
66549.50642199999,459,832
66549.50642199999,460,836
66549.50642199999,460,832
66549.50642199999,460,832
66549.50642199999,460,836
66549.50642199999,459,832
66549.50642199999,460,832
66549.50642199999,460,836
66549.522986,461,832
66549.522986,461,832
66549.522986,462,836
66549.522986,462,832
66549.522986,462,836
66549.522986,462,832
66549.522986,462,832
66549.522986,463,836
66549.522986,463,832
66549.522986,463,832
66549.522986,463,836
66549.522986,464,832
66549.522986,464,832
66549.522986,464,836
66549.522986,464,832
66549.522986,464,832
66549.53581,464,836
66549.53581,465,832
66549.53581,465,832
66549.53581,465,836
66549.53581,464,832
66549.53581,464,832
66549.53581,464,836
66549.53581,463,832
66549.53581,463,832
66549.53581,463,836
66549.53581,463,832
66549.53581,463,832
66549.53581,463,836
66549.53581,463,832
66549.53581,463,832
66549.53581,462,836
66549.54729,462,832
66549.54729,462,836
66549.54729,462,832
66549.54729,462,832
66549.54729,462,836
66549.54729,462,832
66549.54729,461,832
66549.54729,461,836
66549.54729,461,832
66549.54729,461,832
66549.54729,461,836
66549.54729,461,832
66549.54729,462,832
66549.54729,462,836
66549.54729,462,832
66549.54729,463,832
66549.560014,464,840
66549.560014,464,828
66549.560014,464,832
66549.560014,464,836
66549.560014,464,832
66549.560014,466,832
66549.560014,467,836
66549.560014,467,832
66549.560014,467,832
66549.560014,468,836
66549.560014,468,832
66549.560014,468,832
66549.560014,469,836
66549.560014,469,832
66549.560014,469,832
66549.560014,469,836
66549.57648399999,470,832
66549.57648399999,470,836
66549.57648399999,470,832
66549.57648399999,471,832
66549.57648399999,472,836
66549.57648399999,472,832
66549.57648399999,472,832
66549.57648399999,472,836
66549.57648399999,472,832
66549.57648399999,472,832
66549.57648399999,473,836
66549.57648399999,473,832
66549.57648399999,473,832
66549.57648399999,473,836
66549.57648399999,473,832
66549.57648399999,474,832
66549.589263,474,836
66549.589263,474,832
66549.589263,474,832
66549.589263,473,836
66549.589263,473,832
66549.589263,473,832
66549.589263,474,836
66549.589263,474,832
66549.589263,474,832
66549.589263,474,836
66549.589263,475,832
66549.589263,474,832
66549.589263,474,836
66549.589263,474,832
66549.589263,474,832
66549.589263,474,836
66549.600609,475,832
66549.600609,475,832
66549.600609,475,836
66549.600609,474,832
66549.600609,474,836
66549.600609,474,832
66549.600609,475,832
66549.600609,475,836
66549.600609,475,832
66549.600609,474,832
66549.600609,474,836
66549.600609,474,832
66549.600609,473,832
66549.600609,473,836
66549.600609,473,832
66549.600609,473,832
66549.613231,473,836
66549.613231,473,832
66549.613231,473,832
66549.613231,473,836
66549.613231,473,832
66549.613231,474,832
66549.613231,474,836
66549.613231,474,832
66549.613231,474,832
66549.613231,474,836
66549.613231,473,832
66549.613231,473,832
66549.613231,473,836
66549.613231,473,832
66549.613231,473,832
66549.613231,473,836
66549.625931,473,832
66549.625931,473,836
66549.625931,473,832
66549.625931,474,832
66549.625931,474,836
66549.625931,474,832
66549.625931,473,832
66549.625931,473,836
66549.625931,473,832
66549.625931,474,832
66549.625931,474,836
66549.625931,474,832
66549.625931,474,832
66549.625931,474,836
66549.625931,474,832
66549.625931,473,832
66549.64245,473,836
66549.64245,473,832
66549.64245,473,832
66549.64245,472,836
66549.64245,472,832
66549.64245,472,832
66549.64245,473,836
66549.64245,473,832
66549.64245,474,832
66549.64245,474,836
66549.64245,474,832
66549.64245,474,832
66549.64245,474,836
66549.64245,474,832
66549.64245,474,832
66549.64245,475,836
66549.653926,476,832
66549.653926,476,832
66549.653926,476,836
66549.653926,477,832
66549.653926,478,836
66549.653926,479,832
66549.653926,479,832
66549.653926,479,836
66549.653926,479,832
66549.653926,479,832
66549.653926,479,836
66549.653926,478,832
66549.653926,479,832
66549.653926,479,836
66549.653926,480,832
66549.653926,481,832
66549.666785,481,836
66549.666785,481,832
66549.666785,482,832
66549.666785,482,836
66549.666785,483,832
66549.666785,483,832
66549.666785,482,836
66549.666785,483,832
66549.666785,483,832
66549.666785,483,836
66549.666785,483,832
66549.666785,483,832
66549.666785,483,836
66549.666785,483,832
66549.666785,483,832
66549.666785,482,836
66549.679626,482,832
66549.679626,482,836
66549.679626,482,832
66549.679626,482,832
66549.679626,482,836
66549.679626,482,832
66549.679626,482,832
66549.679626,482,836
66549.679626,482,832
66549.679626,482,832
66549.679626,483,836
66549.679626,482,832
66549.679626,482,832
66549.679626,483,836
66549.679626,483,832
66549.679626,483,832
66549.69487200001,484,836
66549.69487200001,484,832
66549.69487200001,484,832
66549.69487200001,484,836
66549.69487200001,484,832
66549.69487200001,484,832
66549.69487200001,485,836
66549.69487200001,485,832
66549.69487200001,485,832
66549.69487200001,485,836
66549.69487200001,486,832
66549.69487200001,486,832
66549.69487200001,486,836
66549.69487200001,486,832
66549.69487200001,486,832
66549.69487200001,487,836
66549.70761,487,832
66549.70761,486,836
66549.70761,486,832
66549.70761,486,832
66549.70761,487,836
66549.70761,487,832
66549.70761,487,832
66549.70761,487,836
66549.70761,487,832
66549.70761,487,832
66549.70761,487,836
66549.70761,487,832
66549.70761,487,836
66549.70761,488,832
66549.70761,488,832
66549.70761,487,832
66549.720331,487,836
66549.720331,487,832
66549.720331,487,832
66549.720331,487,836
66549.720331,487,832
66549.720331,487,832
66549.720331,487,836
66549.720331,487,832
66549.720331,487,832
66549.720331,487,836
66549.720331,487,832
66549.720331,487,832
66549.720331,488,836
66549.720331,488,832
66549.720331,488,832
66549.720331,488,836
66549.732701,489,832
66549.732701,489,832
66549.732701,490,836
66549.732701,490,832
66549.732701,491,836
66549.732701,491,832
66549.732701,491,832
66549.732701,491,836
66549.732701,491,832
66549.732701,491,832
66549.732701,491,836
66549.732701,491,832
66549.732701,491,832
66549.732701,491,836
66549.732701,491,832
66549.732701,492,832
66549.748937,492,836
66549.748937,492,832
66549.748937,491,832
66549.748937,491,836
66549.748937,491,832
66549.748937,491,832
66549.748937,492,836
66549.748937,492,832
66549.748937,492,832
66549.748937,492,836
66549.748937,491,832
66549.748937,492,832
66549.748937,492,836
66549.748937,492,832
66549.748937,492,832
66549.748937,491,836
66549.761455,491,832
66549.761455,491,836
66549.761455,491,832
66549.761455,491,832
66549.761455,491,836
66549.761455,491,832
66549.761455,491,832
66549.761455,491,836
66549.761455,491,832
66549.761455,491,832
66549.761455,492,836
66549.761455,491,832
66549.761455,491,832
66549.761455,491,836
66549.761455,491,832
66549.761455,492,832
66549.772776,492,836
66549.772776,492,832
66549.772776,492,832
66549.772776,493,836
66549.772776,493,832
66549.772776,493,832
66549.772776,493,836
66549.772776,493,832
66549.772776,494,832
66549.772776,495,836
66549.772776,495,832
66549.772776,495,832
66549.772776,495,836
66549.772776,495,832
66549.772776,496,832
66549.772776,496,836
66549.789255,496,832
66549.789255,496,832
66549.789255,497,836
66549.789255,498,832
66549.789255,498,836
66549.789255,498,832
66549.789255,498,832
66549.789255,498,836
66549.789255,498,832
66549.789255,498,832
66549.789255,497,836
66549.789255,497,832
66549.789255,497,832
66549.789255,497,836
66549.789255,497,832
66549.789255,497,832
66549.80187,497,836
66549.80187,497,832
66549.80187,496,832
66549.80187,496,836
66549.80187,496,832
66549.80187,495,832
66549.80187,495,836
66549.80187,495,832
66549.80187,494,832
66549.80187,494,836
66549.80187,494,832
66549.80187,493,832
66549.80187,494,836
66549.80187,494,832
66549.80187,493,832
66549.80187,493,836
66549.814515,493,832
66549.814515,493,832
66549.814515,492,836
66549.814515,493,832
66549.814515,493,836
66549.814515,493,832
66549.814515,493,832
66549.814515,492,836
66549.814515,492,832
66549.814515,492,832
66549.814515,493,836
66549.814515,493,832
66549.814515,493,832
66549.814515,493,836
66549.814515,493,832
66549.814515,493,832
66549.825931,494,836
66549.825931,495,832
66549.825931,495,832
66549.825931,495,836
66549.825931,495,832
66549.825931,495,832
66549.825931,495,836
66549.825931,495,832
66549.825931,495,832
66549.825931,495,836
66549.825931,495,832
66549.825931,495,832
66549.825931,495,836
66549.825931,495,832
66549.825931,496,832
66549.825931,496,836
66549.843566,495,832
66549.843566,496,836
66549.843566,495,832
66549.843566,496,832
66549.843566,496,836
66549.843566,496,832
66549.843566,495,832
66549.843566,495,836
66549.843566,495,832
66549.843566,495,832
66549.843566,496,836
66549.843566,496,832
66549.843566,496,832
66549.843566,496,836
66549.843566,497,832
66549.843566,497,832
66549.855342,497,836
66549.855342,497,832
66549.855342,496,832
66549.855342,497,836
66549.855342,496,832
66549.855342,496,832
66549.855342,496,836
66549.855342,495,832
66549.855342,495,832
66549.855342,496,836
66549.855342,496,832
66549.855342,497,832
66549.855342,496,836
66549.855342,496,832
66549.855342,497,832
66549.855342,497,836
66549.867915,498,832
66549.867915,498,832
66549.867915,499,836
66549.867915,499,832
66549.867915,499,836
66549.867915,499,832
66549.867915,498,832
66549.867915,498,836
66549.867915,498,832
66549.867915,499,832
66549.867915,499,836
66549.867915,499,832
66549.867915,499,832
66549.867915,499,836
66549.867915,499,832
66549.867915,499,832
66549.883237,499,836
66549.883237,499,832
66549.883237,499,832
66549.883237,499,836
66549.883237,499,832
66549.883237,499,832
66549.883237,500,836
66549.883237,500,832
66549.883237,500,832
66549.883237,501,836
66549.883237,500,832
66549.883237,500,832
66549.883237,500,836
66549.883237,500,832
66549.883237,500,832
66549.883237,500,836
66549.896106,500,832
66549.896106,500,832
66549.896106,500,836
66549.896106,500,832
66549.896106,500,836
66549.896106,500,832
66549.896106,500,832
66549.896106,500,836
66549.896106,500,832
66549.896106,500,832
66549.896106,500,836
66549.896106,499,832
66549.896106,499,832
66549.896106,499,836
66549.896106,499,832
66549.896106,498,832
66549.908789,498,836
66549.908789,498,832
66549.908789,498,832
66549.908789,498,840
66549.908789,498,828
66549.908789,498,832
66549.908789,497,836
66549.908789,497,832
66549.908789,496,832
66549.908789,497,836
66549.908789,497,832
66549.908789,497,832
66549.908789,496,836
66549.908789,497,832
66549.908789,497,832
66549.908789,497,836
66549.920269,497,832
66549.920269,498,832
66549.920269,497,836
66549.920269,498,832
66549.920269,498,836
66549.920269,498,832
66549.920269,499,832
66549.920269,499,836
66549.920269,498,832
66549.920269,499,832
66549.920269,498,836
66549.920269,498,832
66549.920269,498,832
66549.920269,498,836
66549.920269,499,832
66549.920269,499,832
66549.936785,498,836
66549.936785,498,832
66549.936785,498,832
66549.936785,498,836
66549.936785,498,832
66549.936785,498,832
66549.936785,497,836
66549.936785,497,832
66549.936785,496,832
66549.936785,496,836
66549.936785,496,832
66549.936785,496,832
66549.936785,496,836
66549.936785,497,832
66549.936785,497,832
66549.936785,497,836
66549.949524,498,832
66549.949524,498,836
66549.949524,498,832
66549.949524,497,832
66549.949524,498,836
66549.949524,498,832
66549.949524,498,832
66549.949524,498,836
66549.949524,497,832
66549.949524,497,832
66549.949524,496,836
66549.949524,496,832
66549.949524,496,832
66549.949524,496,836
66549.949524,496,832
66549.949524,497,832
66549.961271,497,836
66549.961271,498,832
66549.961271,498,832
66549.961271,499,836
66549.961271,499,832
66549.961271,499,832
66549.961271,499,836
66549.961271,500,832
66549.961271,501,832
66549.961271,502,836
66549.961271,503,832
66549.961271,504,832
66549.961271,504,836
66549.961271,506,832
66549.961271,506,832
66549.961271,506,836
66549.974017,507,832
66549.974017,507,836
66549.974017,507,832
66549.974017,507,832
66549.974017,507,836
66549.974017,508,832
66549.974017,509,832
66549.974017,509,836
66549.974017,511,832
66549.974017,512,832
66549.974017,513,836
66549.974017,515,832
66549.974017,517,832
66549.974017,518,836
66549.974017,519,832
66549.974017,521,832
66549.990625,522,836
66549.990625,522,832
66549.990625,523,832
66549.990625,523,836
66549.990625,523,832
66549.990625,523,832
66549.990625,524,836
66549.990625,523,832
66549.990625,524,832
66549.990625,524,836
66549.990625,525,832
66549.990625,526,832
66549.990625,527,836
66549.990625,528,832
66549.990625,528,832
66549.990625,528,836
66550.00216799999,529,832
66550.00216799999,529,832
66550.00216799999,529,836
66550.00216799999,529,832
66550.00216799999,528,836
66550.00216799999,528,832
66550.00216799999,528,832
66550.00216799999,528,836
66550.00216799999,528,832
66550.00216799999,527,832
66550.00216799999,527,836
66550.00216799999,528,832
66550.00216799999,528,832
66550.00216799999,528,836
66550.00216799999,528,832
66550.00216799999,528,832
66550.014702,528,836
66550.014702,528,832
66550.014702,528,832
66550.014702,528,836
66550.014702,527,832
66550.014702,528,832
66550.014702,527,836
66550.014702,527,832
66550.014702,527,832
66550.014702,527,836
66550.014702,527,832
66550.014702,527,832
66550.014702,526,836
66550.014702,526,832
66550.014702,526,832
66550.014702,526,836
66550.027418,526,832
66550.027418,526,832
66550.027418,526,836
66550.027418,526,832
66550.027418,526,836
66550.027418,526,832
66550.027418,526,832
66550.027418,526,836
66550.027418,526,832
66550.027418,526,832
66550.027418,526,836
66550.027418,526,832
66550.027418,526,832
66550.027418,527,836
66550.027418,527,832
66550.027418,526,832
66550.043858,527,836
66550.043858,526,832
66550.043858,526,832
66550.043858,526,836
66550.043858,527,832
66550.043858,527,832
66550.043858,527,836
66550.043858,527,832
66550.043858,527,832
66550.043858,527,836
66550.043858,527,832
66550.043858,526,832
66550.043858,527,836
66550.043858,526,832
66550.043858,527,832
66550.043858,527,836
66550.056422,527,832
66550.056422,527,832
66550.056422,527,836
66550.056422,527,832
66550.056422,527,836
66550.056422,526,832
66550.056422,526,832
66550.056422,526,836
66550.056422,526,832
66550.056422,526,832
66550.056422,525,836
66550.056422,525,832
66550.056422,525,832
66550.056422,525,836
66550.056422,526,832
66550.056422,526,836
66550.068774,526,832
66550.068774,526,832
66550.068774,527,832
66550.068774,527,836
66550.068774,527,832
66550.068774,526,832
66550.068774,526,836
66550.068774,526,832
66550.068774,526,832
66550.068774,525,836
66550.068774,525,832
66550.068774,525,832
66550.068774,524,836
66550.068774,523,832
66550.068774,523,832
66550.068774,523,836
66550.08009,523,832
66550.08009,523,832
66550.08009,522,836
66550.08009,522,832
66550.08009,522,836
66550.08009,522,832
66550.08009,522,832
66550.08009,522,836
66550.08009,521,832
66550.08009,521,832
66550.08009,521,836
66550.08009,521,832
66550.08009,522,832
66550.08009,522,836
66550.08009,523,832
66550.08009,523,832
66550.092652,523,836
66550.092652,523,832
66550.092652,524,832
66550.092652,524,836
66550.092652,524,832
66550.092652,524,832
66550.092652,525,836
66550.092652,524,832
66550.092652,524,832
66550.092652,525,836
66550.092652,526,832
66550.092652,526,832
66550.092652,526,836
66550.092652,526,832
66550.092652,526,832
66550.092652,526,836
66550.109063,526,832
66550.109063,527,832
66550.109063,527,836
66550.109063,526,832
66550.109063,527,836
66550.109063,527,832
66550.109063,527,832
66550.109063,528,836
66550.109063,528,832
66550.109063,528,832
66550.109063,527,836
66550.109063,527,832
66550.109063,526,832
66550.109063,526,836
66550.109063,526,832
66550.109063,525,832
66550.121721,526,836
66550.121721,526,832
66550.121721,527,832
66550.121721,527,836
66550.121721,528,832
66550.121721,529,832
66550.121721,529,836
66550.121721,528,832
66550.121721,528,832
66550.121721,527,836
66550.121721,528,832
66550.121721,528,832
66550.121721,528,836
66550.121721,528,832
66550.121721,529,832
66550.121721,529,836
66550.133171,528,832
66550.133171,528,836
66550.133171,528,832
66550.133171,528,832
66550.133171,529,836
66550.133171,528,832
66550.133171,528,832
66550.133171,527,836
66550.133171,528,832
66550.133171,527,832
66550.133171,528,836
66550.133171,528,832
66550.133171,528,832
66550.133171,528,836
66550.133171,528,832
66550.133171,528,832
66550.14563700001,528,836
66550.14563700001,528,832
66550.14563700001,528,832
66550.14563700001,528,836
66550.14563700001,527,832
66550.14563700001,527,832
66550.14563700001,527,836
66550.14563700001,527,832
66550.14563700001,528,832
66550.14563700001,528,836
66550.14563700001,528,832
66550.14563700001,527,832
66550.14563700001,527,836
66550.14563700001,527,832
66550.14563700001,527,832
66550.14563700001,526,836
66550.162399,526,832
66550.162399,526,832
66550.162399,526,836
66550.162399,525,832
66550.162399,526,836
66550.162399,525,832
66550.162399,526,832
66550.162399,526,836
66550.162399,526,832
66550.162399,525,832
66550.162399,525,836
66550.162399,525,832
66550.162399,525,832
66550.162399,525,836
66550.162399,525,832
66550.162399,525,832
66550.174994,525,836
66550.174994,525,832
66550.174994,524,832
66550.174994,523,836
66550.174994,523,832
66550.174994,524,832
66550.174994,524,836
66550.174994,523,832
66550.174994,523,832
66550.174994,523,836
66550.174994,522,832
66550.174994,523,832
66550.174994,523,836
66550.174994,522,832
66550.174994,522,832
66550.174994,522,836
66550.187345,522,832
66550.187345,522,832
66550.187345,522,836
66550.187345,522,832
66550.187345,521,836
66550.187345,521,832
66550.187345,521,832
66550.187345,521,836
66550.187345,522,832
66550.187345,522,832
66550.187345,522,836
66550.187345,521,832
66550.187345,520,832
66550.187345,520,836
66550.187345,520,832
66550.187345,521,832
66550.198764,522,836
66550.198764,523,832
66550.198764,523,832
66550.198764,523,836
66550.198764,523,832
66550.198764,523,832
66550.198764,523,836
66550.198764,523,832
66550.198764,523,832
66550.198764,524,836
66550.198764,523,832
66550.198764,523,832
66550.198764,523,836
66550.198764,523,832
66550.198764,523,832
66550.198764,523,836
66550.215005,524,832
66550.215005,523,832
66550.215005,523,836
66550.215005,522,832
66550.215005,522,836
66550.215005,522,832
66550.215005,522,832
66550.215005,521,836
66550.215005,521,832
66550.215005,520,832
66550.215005,519,836
66550.215005,519,832
66550.215005,518,832
66550.215005,518,836
66550.215005,518,832
66550.215005,517,832
66550.227724,517,836
66550.227724,517,832
66550.227724,518,832
66550.227724,518,836
66550.227724,518,832
66550.227724,518,832
66550.227724,518,836
66550.227724,518,832
66550.227724,518,832
66550.227724,517,836
66550.227724,517,832
66550.227724,517,832
66550.227724,518,836
66550.227724,517,832
66550.227724,517,832
66550.227724,517,836
66550.240393,517,832
66550.240393,517,836
66550.240393,518,832
66550.240393,518,832
66550.240393,518,836
66550.240393,518,832
66550.240393,518,832
66550.240393,518,836
66550.240393,518,832
66550.240393,519,832
66550.240393,519,836
66550.240393,519,832
66550.240393,520,832
66550.240393,519,836
66550.240393,519,832
66550.240393,519,832
66550.256904,519,836
66550.256904,519,832
66550.256904,518,832
66550.256904,519,836
66550.256904,519,832
66550.256904,519,832
66550.256904,519,840
66550.256904,519,828
66550.256904,519,832
66550.256904,519,836
66550.256904,520,832
66550.256904,520,832
66550.256904,520,836
66550.256904,519,832
66550.256904,519,832
66550.256904,519,836
66550.268411,519,832
66550.268411,519,832
66550.268411,519,836
66550.268411,520,832
66550.268411,520,836
66550.268411,519,832
66550.268411,519,832
66550.268411,518,836
66550.268411,518,832
66550.268411,517,832
66550.268411,517,836
66550.268411,517,832
66550.268411,518,832
66550.268411,518,836
66550.268411,517,832
66550.268411,517,832
66550.281451,517,836
66550.281451,516,832
66550.281451,516,832
66550.281451,516,836
66550.281451,516,832
66550.281451,516,832
66550.281451,517,836
66550.281451,517,832
66550.281451,517,832
66550.281451,517,836
66550.281451,518,832
66550.281451,518,832
66550.281451,518,836
66550.281451,518,832
66550.281451,519,832
66550.281451,520,836
66550.293855,522,832
66550.293855,523,832
66550.293855,524,836
66550.293855,525,832
66550.293855,526,836
66550.293855,526,832
66550.293855,526,832
66550.293855,526,836
66550.293855,526,832
66550.293855,526,832
66550.293855,526,836
66550.293855,525,832
66550.293855,525,832
66550.293855,525,836
66550.293855,525,832
66550.293855,526,832
66550.309286,526,836
66550.309286,527,832
66550.309286,527,832
66550.309286,528,836
66550.309286,528,832
66550.309286,529,832
66550.309286,529,836
66550.309286,530,832
66550.309286,530,832
66550.309286,531,836
66550.309286,531,832
66550.309286,532,832
66550.309286,532,836
66550.309286,532,832
66550.309286,532,832
66550.309286,533,836
66550.321878,533,832
66550.321878,534,836
66550.321878,535,832
66550.321878,536,832
66550.321878,536,836
66550.321878,537,832
66550.321878,537,832
66550.321878,538,836
66550.321878,538,832
66550.321878,539,832
66550.321878,539,836
66550.321878,540,832
66550.321878,541,832
66550.321878,541,836
66550.321878,541,832
66550.321878,542,832
66550.334594,541,836
66550.334594,542,832
66550.334594,542,832
66550.334594,542,836
66550.334594,542,832
66550.334594,542,832
66550.334594,542,836
66550.334594,542,832
66550.334594,542,832
66550.334594,542,836
66550.334594,542,832
66550.334594,542,832
66550.334594,542,836
66550.334594,542,832
66550.334594,542,832
66550.334594,542,836
66550.35111599999,542,832
66550.35111599999,541,832
66550.35111599999,540,836
66550.35111599999,540,832
66550.35111599999,539,836
66550.35111599999,539,832
66550.35111599999,539,832
66550.35111599999,538,836
66550.35111599999,538,832
66550.35111599999,538,832
66550.35111599999,538,836
66550.35111599999,537,832
66550.35111599999,537,832
66550.35111599999,537,836
66550.35111599999,538,832
66550.35111599999,538,832
66550.362561,538,836
66550.362561,538,832
66550.362561,538,832
66550.362561,538,836
66550.362561,538,832
66550.362561,539,832
66550.362561,539,836
66550.362561,540,832
66550.362561,540,832
66550.362561,540,836
66550.362561,540,832
66550.362561,540,832
66550.362561,541,836
66550.362561,541,832
66550.362561,541,832
66550.362561,540,836
66550.375185,541,832
66550.375185,541,832
66550.375185,542,836
66550.375185,542,832
66550.375185,542,836
66550.375185,542,832
66550.375185,541,832
66550.375185,541,836
66550.375185,540,832
66550.375185,539,832
66550.375185,539,836
66550.375185,539,832
66550.375185,539,832
66550.375185,539,836
66550.375185,538,832
66550.375185,538,832
66550.38821800001,538,836
66550.38821800001,538,832
66550.38821800001,539,832
66550.38821800001,539,836
66550.38821800001,539,832
66550.38821800001,539,832
66550.38821800001,538,836
66550.38821800001,538,832
66550.38821800001,539,832
66550.38821800001,540,836
66550.38821800001,540,832
66550.38821800001,540,832
66550.38821800001,540,836
66550.38821800001,540,832
66550.38821800001,541,832
66550.38821800001,542,836
66550.404765,542,832
66550.404765,541,832
66550.404765,541,836
66550.404765,540,832
66550.404765,540,836
66550.404765,539,832
66550.404765,538,832
66550.404765,538,836
66550.404765,538,832
66550.404765,538,832
66550.404765,538,836
66550.404765,538,832
66550.404765,538,832
66550.404765,537,836
66550.404765,536,832
66550.404765,536,832
66550.416154,535,836
66550.416154,535,832
66550.416154,535,836
66550.416154,535,832
66550.416154,534,832
66550.416154,535,832
66550.416154,536,836
66550.416154,537,832
66550.416154,537,832
66550.416154,537,836
66550.416154,537,832
66550.416154,537,832
66550.416154,537,836
66550.416154,536,832
66550.416154,535,832
66550.416154,535,836
66550.429034,535,832
66550.429034,535,832
66550.429034,535,836
66550.429034,535,832
66550.429034,534,836
66550.429034,534,832
66550.429034,534,832
66550.429034,534,836
66550.429034,534,832
66550.429034,534,832
66550.429034,534,836
66550.429034,534,832
66550.429034,534,832
66550.429034,535,836
66550.429034,535,832
66550.429034,535,832
66550.444384,536,836
66550.444384,536,832
66550.444384,535,832
66550.444384,534,836
66550.444384,534,832
66550.444384,533,832
66550.444384,533,836
66550.444384,533,832
66550.444384,533,832
66550.444384,533,836
66550.444384,533,832
66550.444384,533,832
66550.444384,533,836
66550.444384,533,832
66550.444384,533,832
66550.444384,533,836
66550.45703,534,832
66550.45703,534,832
66550.45703,534,836
66550.45703,533,832
66550.45703,534,836
66550.45703,534,832
66550.45703,534,832
66550.45703,535,836
66550.45703,535,832
66550.45703,536,832
66550.45703,536,836
66550.45703,536,832
66550.45703,536,832
66550.45703,537,836
66550.45703,537,832
66550.45703,537,832
66550.469659,537,836
66550.469659,537,832
66550.469659,537,832
66550.469659,538,836
66550.469659,538,832
66550.469659,537,832
66550.469659,537,836
66550.469659,537,832
66550.469659,537,832
66550.469659,538,836
66550.469659,538,832
66550.469659,539,832
66550.469659,539,836
66550.469659,540,832
66550.469659,540,832
66550.469659,540,836
66550.481013,540,832
66550.481013,541,832
66550.481013,542,836
66550.481013,542,832
66550.481013,543,836
66550.481013,544,832
66550.481013,543,832
66550.481013,543,836
66550.481013,543,832
66550.481013,543,832
66550.481013,543,836
66550.481013,543,832
66550.481013,543,832
66550.481013,543,836
66550.481013,543,832
66550.481013,543,832
66550.49786999999,543,836
66550.49786999999,543,832
66550.49786999999,543,832
66550.49786999999,543,836
66550.49786999999,543,832
66550.49786999999,543,832
66550.49786999999,544,836
66550.49786999999,544,832
66550.49786999999,544,832
66550.49786999999,543,836
66550.49786999999,543,832
66550.49786999999,543,832
66550.49786999999,543,836
66550.49786999999,543,832
66550.49786999999,543,832
66550.49786999999,543,836
66550.510532,542,832
66550.510532,542,836
66550.510532,543,832
66550.510532,542,832
66550.510532,542,836
66550.510532,542,832
66550.510532,542,832
66550.510532,542,836
66550.510532,542,832
66550.510532,541,832
66550.510532,542,836
66550.510532,541,832
66550.510532,541,832
66550.510532,541,836
66550.510532,541,832
66550.510532,541,832
66550.522924,541,836
66550.522924,541,832
66550.522924,541,832
66550.522924,540,836
66550.522924,540,832
66550.522924,540,832
66550.522924,539,836
66550.522924,539,832
66550.522924,538,832
66550.522924,537,836
66550.522924,536,832
66550.522924,536,832
66550.522924,535,836
66550.522924,534,832
66550.522924,533,832
66550.522924,532,836
66550.534346,532,832
66550.534346,531,836
66550.534346,530,832
66550.534346,529,832
66550.534346,529,836
66550.534346,530,832
66550.534346,530,832
66550.534346,531,836
66550.534346,531,832
66550.534346,530,832
66550.534346,529,836
66550.534346,529,832
66550.534346,529,832
66550.534346,528,836
66550.534346,528,832
66550.534346,528,832
66550.547023,528,836
66550.547023,527,832
66550.547023,527,832
66550.547023,527,836
66550.547023,527,832
66550.547023,526,832
66550.547023,526,836
66550.547023,525,832
66550.547023,525,832
66550.547023,525,836
66550.547023,526,832
66550.547023,526,832
66550.547023,526,836
66550.547023,526,832
66550.547023,525,832
66550.547023,525,836
66550.563606,525,832
66550.563606,525,832
66550.563606,525,836
66550.563606,526,832
66550.563606,526,836
66550.563606,526,832
66550.563606,525,832
66550.563606,525,836
66550.563606,524,832
66550.563606,524,832
66550.563606,525,836
66550.563606,525,832
66550.563606,524,832
66550.563606,525,836
66550.563606,525,832
66550.563606,525,832
66550.57646,526,836
66550.57646,527,832
66550.57646,527,832
66550.57646,527,836
66550.57646,527,832
66550.57646,527,832
66550.57646,527,836
66550.57646,526,832
66550.57646,526,832
66550.57646,526,836
66550.57646,526,832
66550.57646,526,832
66550.57646,526,836
66550.57646,526,832
66550.57646,527,832
66550.57646,527,836
66550.58765,528,832
66550.58765,528,832
66550.58765,528,836
66550.58765,528,832
66550.58765,527,836
66550.58765,527,832
66550.58765,526,832
66550.58765,526,836
66550.58765,526,832
66550.58765,527,832
66550.58765,527,836
66550.58765,526,832
66550.58765,526,832
66550.58765,525,836
66550.58765,525,832
66550.58765,525,832
66550.60059,525,836
66550.60059,526,832
66550.60059,526,832
66550.60059,525,836
66550.60059,526,832
66550.60059,525,832
66550.60059,524,836
66550.60059,524,832
66550.60059,524,832
66550.60059,524,848
66550.60059,524,820
66550.60059,524,832
66550.60059,524,836
66550.60059,523,832
66550.60059,523,832
66550.60059,523,836
66550.613498,522,832
66550.613498,523,832
66550.613498,522,836
66550.613498,523,832
66550.613498,523,836
66550.613498,523,832
66550.613498,523,832
66550.613498,523,836
66550.613498,523,832
66550.613498,523,832
66550.613498,523,836
66550.613498,524,832
66550.613498,524,832
66550.613498,524,836
66550.613498,523,832
66550.613498,523,832
66550.62962600001,523,836
66550.62962600001,524,832
66550.62962600001,524,832
66550.62962600001,524,836
66550.62962600001,524,832
66550.62962600001,524,832
66550.62962600001,524,836
66550.62962600001,524,832
66550.62962600001,524,832
66550.62962600001,524,836
66550.62962600001,524,832
66550.62962600001,524,832
66550.62962600001,523,836
66550.62962600001,523,832
66550.62962600001,522,832
66550.62962600001,522,836
66550.641014,522,832
66550.641014,522,832
66550.641014,522,836
66550.641014,522,832
66550.641014,523,836
66550.641014,523,832
66550.641014,523,832
66550.641014,523,836
66550.641014,522,832
66550.641014,522,832
66550.641014,522,836
66550.641014,521,832
66550.641014,521,832
66550.641014,522,836
66550.641014,522,832
66550.641014,523,832
66550.653588,523,836
66550.653588,523,832
66550.653588,523,832
66550.653588,523,836
66550.653588,523,832
66550.653588,523,832
66550.653588,523,836
66550.653588,523,832
66550.653588,523,832
66550.653588,522,836
66550.653588,522,832
66550.653588,521,832
66550.653588,521,836
66550.653588,521,832
66550.653588,522,832
66550.653588,521,836
66550.666267,521,832
66550.666267,521,836
66550.666267,521,832
66550.666267,521,832
66550.666267,520,836
66550.666267,520,832
66550.666267,521,832
66550.666267,522,836
66550.666267,523,832
66550.666267,523,832
66550.666267,523,836
66550.666267,523,832
66550.666267,523,832
66550.666267,522,836
66550.666267,522,832
66550.666267,522,832
66550.682544,522,836
66550.682544,521,832
66550.682544,521,832
66550.682544,521,836
66550.682544,521,832
66550.682544,521,832
66550.682544,521,836
66550.682544,521,832
66550.682544,520,832
66550.682544,520,836
66550.682544,521,832
66550.682544,521,832
66550.682544,521,836
66550.682544,522,832
66550.682544,522,832
66550.682544,522,836
66550.695257,521,832
66550.695257,521,836
66550.695257,521,832
66550.695257,520,832
66550.695257,520,836
66550.695257,520,832
66550.695257,520,832
66550.695257,520,836
66550.695257,520,832
66550.695257,520,832
66550.695257,521,836
66550.695257,521,832
66550.695257,521,832
66550.695257,521,836
66550.695257,521,832
66550.695257,520,832
66550.706861,519,836
66550.706861,519,832
66550.706861,519,832
66550.706861,519,836
66550.706861,519,832
66550.706861,519,832
66550.706861,519,836
66550.706861,519,832
66550.706861,519,832
66550.706861,519,836
66550.706861,519,832
66550.706861,519,832
66550.706861,519,836
66550.706861,519,832
66550.706861,519,832
66550.706861,520,836
66550.723497,520,832
66550.723497,520,836
66550.723497,520,832
66550.723497,520,832
66550.723497,520,836
66550.723497,520,832
66550.723497,519,832
66550.723497,520,836
66550.723497,520,832
66550.723497,520,832
66550.723497,519,836
66550.723497,519,832
66550.723497,519,832
66550.723497,519,836
66550.723497,519,832
66550.723497,520,832
66550.736127,520,836
66550.736127,520,832
66550.736127,521,832
66550.736127,521,836
66550.736127,521,832
66550.736127,521,832
66550.736127,521,836
66550.736127,521,832
66550.736127,522,832
66550.736127,522,836
66550.736127,522,832
66550.736127,522,832
66550.736127,522,836
66550.736127,522,832
66550.736127,521,832
66550.736127,521,836
66550.747543,521,832
66550.747543,521,832
66550.747543,520,836
66550.747543,519,832
66550.747543,519,836
66550.747543,518,832
66550.747543,518,832
66550.747543,518,836
66550.747543,517,832
66550.747543,517,832
66550.747543,517,836
66550.747543,517,832
66550.747543,515,832
66550.747543,515,836
66550.747543,514,832
66550.747543,514,832
66550.760202,513,836
66550.760202,513,832
66550.760202,513,832
66550.760202,512,836
66550.760202,511,832
66550.760202,511,844
66550.760202,510,824
66550.760202,510,832
66550.760202,510,832
66550.760202,510,836
66550.760202,510,832
66550.760202,510,832
66550.760202,509,836
66550.760202,509,832
66550.760202,509,832
66550.760202,509,836
66550.776615,509,832
66550.776615,509,836
66550.776615,509,832
66550.776615,508,832
66550.776615,508,836
66550.776615,508,832
66550.776615,508,832
66550.776615,507,836
66550.776615,507,832
66550.776615,508,832
66550.776615,509,836
66550.776615,509,832
66550.776615,509,832
66550.776615,509,836
66550.776615,510,832
66550.776615,511,832
66550.78931400001,511,836
66550.78931400001,511,832
66550.78931400001,511,832
66550.78931400001,511,836
66550.78931400001,511,832
66550.78931400001,512,832
66550.78931400001,512,836
66550.78931400001,512,832
66550.78931400001,512,832
66550.78931400001,512,836
66550.78931400001,512,832
66550.78931400001,512,832
66550.78931400001,512,836
66550.78931400001,512,832
66550.78931400001,512,832
66550.78931400001,512,836
66550.802041,512,832
66550.802041,512,832
66550.802041,513,836
66550.802041,513,832
66550.802041,513,836
66550.802041,513,832
66550.802041,513,832
66550.802041,513,836
66550.802041,513,832
66550.802041,513,832
66550.802041,514,836
66550.802041,514,832
66550.802041,514,832
66550.802041,513,836
66550.802041,513,832
66550.802041,513,832
66550.818277,513,836
66550.818277,513,832
66550.818277,513,832
66550.818277,514,836
66550.818277,513,832
66550.818277,513,832
66550.818277,513,836
66550.818277,513,832
66550.818277,513,832
66550.818277,514,836
66550.818277,514,832
66550.818277,514,832
66550.818277,514,836
66550.818277,513,832
66550.818277,513,832
66550.818277,513,836
66550.82958,512,832
66550.82958,512,836
66550.82958,513,832
66550.82958,513,832
66550.82958,513,836
66550.82958,513,832
66550.82958,513,832
66550.82958,513,836
66550.82958,512,832
66550.82958,512,832
66550.82958,512,836
66550.82958,513,832
66550.82958,514,832
66550.82958,514,836
66550.82958,513,832
66550.82958,512,832
66550.84220300001,511,836
66550.84220300001,511,832
66550.84220300001,511,832
66550.84220300001,511,836
66550.84220300001,511,832
66550.84220300001,511,832
66550.84220300001,511,836
66550.84220300001,511,832
66550.84220300001,511,832
66550.84220300001,511,836
66550.84220300001,512,832
66550.84220300001,512,832
66550.84220300001,512,836
66550.84220300001,512,832
66550.84220300001,512,832
66550.84220300001,512,836
66550.85467,512,832
66550.85467,512,836
66550.85467,513,832
66550.85467,512,832
66550.85467,513,836
66550.85467,512,832
66550.85467,512,832
66550.85467,513,836
66550.85467,513,832
66550.85467,512,832
66550.85467,512,836
66550.85467,511,832
66550.85467,511,832
66550.85467,511,836
66550.85467,511,832
66550.85467,511,832
66550.87128,512,836
66550.87128,512,832
66550.87128,512,832
66550.87128,512,836
66550.87128,513,832
66550.87128,513,832
66550.87128,512,836
66550.87128,513,832
66550.87128,512,832
66550.87128,512,836
66550.87128,512,832
66550.87128,512,832
66550.87128,512,836
66550.87128,512,832
66550.87128,512,832
66550.87128,511,836
66550.88275599999,511,832
66550.88275599999,511,832
66550.88275599999,511,836
66550.88275599999,512,832
66550.88275599999,512,836
66550.88275599999,512,832
66550.88275599999,512,832
66550.88275599999,512,836
66550.88275599999,512,832
66550.88275599999,513,832
66550.88275599999,512,836
66550.88275599999,512,832
66550.88275599999,513,832
66550.88275599999,513,836
66550.88275599999,513,832
66550.88275599999,512,832
66550.895381,512,836
66550.895381,512,832
66550.895381,512,832
66550.895381,512,836
66550.895381,511,832
66550.895381,511,832
66550.895381,510,836
66550.895381,511,832
66550.895381,511,832
66550.895381,511,836
66550.895381,511,832
66550.895381,511,832
66550.895381,511,836
66550.895381,511,832
66550.895381,511,832
66550.895381,511,836
66550.911867,511,832
66550.911867,511,832
66550.911867,510,836
66550.911867,510,832
66550.911867,510,836
66550.911867,510,832
66550.911867,511,832
66550.911867,510,836
66550.911867,510,832
66550.911867,511,832
66550.911867,511,836
66550.911867,511,832
66550.911867,511,832
66550.911867,511,836
66550.911867,511,832
66550.911867,512,832
66550.924506,512,836
66550.924506,511,832
66550.924506,512,832
66550.924506,512,836
66550.924506,512,832
66550.924506,512,832
66550.924506,512,836
66550.924506,511,832
66550.924506,512,832
66550.924506,512,836
66550.924506,512,832
66550.924506,513,832
66550.924506,514,836
66550.924506,514,832
66550.924506,513,832
66550.924506,513,836
66550.935929,513,832
66550.935929,513,832
66550.935929,514,836
66550.935929,513,832
66550.935929,513,836
66550.935929,512,832
66550.935929,512,832
66550.935929,512,836
66550.935929,512,832
66550.935929,511,832
66550.935929,512,836
66550.935929,512,832
66550.935929,512,832
66550.935929,512,836
66550.935929,512,832
66550.935929,512,832
66550.948255,513,836
66550.948255,513,832
66550.948255,513,832
66550.948255,513,836
66550.948255,512,832
66550.948255,512,832
66550.948255,512,836
66550.948255,512,832
66550.948255,513,832
66550.948255,513,836
66550.948255,513,832
66550.948255,513,832
66550.948255,512,848
66550.948255,513,820
66550.948255,513,832
66550.948255,513,836
66550.964622,513,832
66550.964622,512,832
66550.964622,512,836
66550.964622,513,832
66550.964622,513,836
66550.964622,513,832
66550.964622,513,832
66550.964622,512,836
66550.964622,512,832
66550.964622,512,832
66550.964622,511,836
66550.964622,511,832
66550.964622,511,832
66550.964622,511,836
66550.964622,511,832
66550.964622,511,832
66550.977337,510,836
66550.977337,510,832
66550.977337,511,832
66550.977337,511,836
66550.977337,511,832
66550.977337,510,832
66550.977337,510,836
66550.977337,510,832
66550.977337,511,832
66550.977337,510,836
66550.977337,510,832
66550.977337,510,832
66550.977337,510,836
66550.977337,510,832
66550.977337,510,832
66550.977337,510,836
66550.989996,510,832
66550.989996,510,832
66550.989996,510,836
66550.989996,510,832
66550.989996,509,836
66550.989996,509,832
66550.989996,509,832
66550.989996,508,836
66550.989996,509,832
66550.989996,509,832
66550.989996,509,836
66550.989996,509,832
66550.989996,509,832
66550.989996,510,836
66550.989996,509,832
66550.989996,508,832
66551.001386,508,836
66551.001386,509,832
66551.001386,508,832
66551.001386,508,836
66551.001386,508,832
66551.001386,507,832
66551.001386,508,836
66551.001386,508,832
66551.001386,508,832
66551.001386,508,836
66551.001386,508,832
66551.001386,509,832
66551.001386,508,836
66551.001386,509,832
66551.001386,509,832
66551.001386,510,836
66551.014075,510,832
66551.014075,511,832
66551.014075,511,836
66551.014075,511,832
66551.014075,511,836
66551.014075,511,832
66551.014075,511,832
66551.014075,511,836
66551.014075,511,832
66551.014075,511,832
66551.014075,511,836
66551.014075,510,832
66551.014075,510,832
66551.014075,511,836
66551.014075,511,832
66551.014075,511,832
66551.03055699999,511,836
66551.03055699999,511,832
66551.03055699999,511,832
66551.03055699999,511,836
66551.03055699999,512,832
66551.03055699999,511,832
66551.03055699999,511,836
66551.03055699999,511,832
66551.03055699999,511,832
66551.03055699999,511,836
66551.03055699999,511,832
66551.03055699999,511,832
66551.03055699999,511,836
66551.03055699999,511,832
66551.03055699999,511,832
66551.03055699999,511,836
66551.043157,510,832
66551.043157,510,832
66551.043157,510,836
66551.043157,510,832
66551.043157,511,836
66551.043157,511,832
66551.043157,511,832
66551.043157,511,836
66551.043157,511,832
66551.043157,511,832
66551.043157,511,836
66551.043157,511,832
66551.043157,512,832
66551.043157,512,836
66551.043157,512,832
66551.043157,512,832
66551.054538,512,836
66551.054538,511,832
66551.054538,511,832
66551.054538,511,836
66551.054538,511,832
66551.054538,511,832
66551.054538,511,836
66551.054538,511,832
66551.054538,512,832
66551.054538,512,836
66551.054538,513,832
66551.054538,513,832
66551.054538,513,836
66551.054538,513,832
66551.054538,513,832
66551.054538,513,836
66551.067442,513,832
66551.067442,513,832
66551.067442,513,836
66551.067442,512,832
66551.067442,513,836
66551.067442,513,832
66551.067442,512,832
66551.067442,512,836
66551.067442,513,832
66551.067442,513,832
66551.067442,512,836
66551.067442,512,832
66551.067442,511,832
66551.067442,511,836
66551.067442,511,832
66551.067442,511,832
66551.084056,511,836
66551.084056,511,832
66551.084056,511,832
66551.084056,511,836
66551.084056,510,832
66551.084056,510,832
66551.084056,510,836
66551.084056,510,832
66551.084056,510,832
66551.084056,509,836
66551.084056,509,832
66551.084056,509,832
66551.084056,509,836
66551.084056,509,832
66551.084056,509,832
66551.084056,509,836
66551.095504,510,832
66551.095504,509,832
66551.095504,509,836
66551.095504,509,832
66551.095504,509,836
66551.095504,509,832
66551.095504,509,832
66551.095504,509,836
66551.095504,509,832
66551.095504,509,832
66551.095504,509,836
66551.095504,509,832
66551.095504,510,832
66551.095504,510,836
66551.095504,511,832
66551.095504,511,832
66551.10817400001,511,836
66551.10817400001,511,832
66551.10817400001,511,832
66551.10817400001,510,836
66551.10817400001,510,832
66551.10817400001,510,832
66551.10817400001,510,836
66551.10817400001,509,832
66551.10817400001,509,836
66551.10817400001,509,832
66551.10817400001,509,832
66551.10817400001,509,832
66551.10817400001,510,836
66551.10817400001,510,832
66551.10817400001,510,832
66551.10817400001,509,836
66551.120809,509,832
66551.120809,509,836
66551.120809,508,832
66551.120809,508,832
66551.120809,508,836
66551.120809,508,832
66551.120809,508,832
66551.120809,509,836
66551.120809,509,832
66551.120809,509,832
66551.120809,510,836
66551.120809,511,832
66551.120809,510,832
66551.120809,509,836
66551.120809,509,832
66551.120809,508,832
66551.133791,508,836
66551.133791,509,832
66551.133791,510,832
66551.133791,510,836
66551.133791,510,832
66551.133791,510,832
66551.133791,510,836
66551.133791,510,832
66551.133791,510,832
66551.133791,510,836
66551.133791,510,832
66551.133791,510,832
66551.133791,510,836
66551.133791,510,832
66551.133791,510,832
66551.133791,511,836
66551.149001,511,832
66551.149001,511,836
66551.149001,511,832
66551.149001,511,832
66551.149001,510,836
66551.149001,509,832
66551.149001,509,832
66551.149001,509,836
66551.149001,509,832
66551.149001,509,832
66551.149001,509,836
66551.149001,510,832
66551.149001,510,832
66551.149001,510,836
66551.149001,511,832
66551.149001,510,832
66551.161628,511,836
66551.161628,511,832
66551.161628,511,832
66551.161628,511,836
66551.161628,511,832
66551.161628,511,832
66551.161628,512,836
66551.161628,511,832
66551.161628,511,832
66551.161628,512,836
66551.161628,513,832
66551.161628,513,832
66551.161628,513,836
66551.161628,513,832
66551.161628,513,832
66551.161628,513,836
66551.17436,513,832
66551.17436,513,832
66551.17436,513,836
66551.17436,513,832
66551.17436,513,836
66551.17436,513,832
66551.17436,513,832
66551.17436,514,836
66551.17436,514,832
66551.17436,514,832
66551.17436,514,836
66551.17436,513,832
66551.17436,513,832
66551.17436,513,836
66551.17436,512,832
66551.17436,512,832
66551.190811,511,836
66551.190811,512,832
66551.190811,511,832
66551.190811,511,836
66551.190811,510,832
66551.190811,511,832
66551.190811,511,836
66551.190811,512,832
66551.190811,512,832
66551.190811,512,836
66551.190811,512,832
66551.190811,512,832
66551.190811,512,836
66551.190811,512,832
66551.190811,513,832
66551.190811,513,836
66551.202212,513,832
66551.202212,512,832
66551.202212,512,836
66551.202212,513,832
66551.202212,513,836
66551.202212,514,832
66551.202212,514,832
66551.202212,514,836
66551.202212,514,832
66551.202212,514,832
66551.202212,514,836
66551.202212,515,832
66551.202212,515,832
66551.202212,515,836
66551.202212,515,832
66551.202212,515,832
66551.214541,514,836
66551.214541,513,832
66551.214541,513,832
66551.214541,513,836
66551.214541,513,832
66551.214541,513,832
66551.214541,514,836
66551.214541,514,832
66551.214541,514,832
66551.214541,514,836
66551.214541,515,832
66551.214541,515,832
66551.214541,515,836
66551.214541,515,832
66551.214541,515,832
66551.214541,514,836
66551.226851,514,832
66551.226851,514,832
66551.226851,514,836
66551.226851,514,832
66551.226851,514,836
66551.226851,514,832
66551.226851,514,832
66551.226851,514,836
66551.226851,514,832
66551.226851,515,832
66551.226851,515,836
66551.226851,514,832
66551.226851,514,832
66551.226851,513,836
66551.226851,514,832
66551.226851,514,832
66551.24359700001,514,836
66551.24359700001,514,832
66551.24359700001,514,832
66551.24359700001,513,836
66551.24359700001,513,832
66551.24359700001,513,832
66551.24359700001,513,836
66551.24359700001,513,832
66551.24359700001,512,832
66551.24359700001,512,836
66551.24359700001,512,832
66551.24359700001,512,832
66551.24359700001,513,836
66551.24359700001,513,832
66551.24359700001,513,832
66551.24359700001,513,836
66551.256354,512,832
66551.256354,512,832
66551.256354,512,836
66551.256354,512,832
66551.256354,512,836
66551.256354,512,832
66551.256354,512,832
66551.256354,512,836
66551.256354,512,832
66551.256354,512,832
66551.256354,512,836
66551.256354,511,832
66551.256354,512,832
66551.256354,512,836
66551.256354,512,832
66551.256354,513,832
66551.26883,513,836
66551.26883,513,832
66551.26883,513,832
66551.26883,513,836
66551.26883,513,832
66551.26883,512,832
66551.26883,512,836
66551.26883,512,832
66551.26883,512,832
66551.26883,512,836
66551.26883,511,832
66551.26883,511,832
66551.26883,511,836
66551.26883,511,832
66551.26883,512,832
66551.26883,512,836
66551.284072,512,832
66551.284072,511,832
66551.284072,511,836
66551.284072,511,832
66551.284072,511,836
66551.284072,511,832
66551.284072,510,832
66551.284072,510,836
66551.284072,511,832
66551.284072,510,832
66551.284072,510,836
66551.284072,510,832
66551.284072,510,832
66551.284072,510,836
66551.284072,511,832
66551.284072,511,832
66551.297017,510,836
66551.297017,510,832
66551.297017,510,832
66551.297017,510,836
66551.297017,510,832
66551.297017,510,832
66551.297017,510,836
66551.297017,511,832
66551.297017,511,832
66551.297017,511,836
66551.297017,511,832
66551.297017,511,832
66551.297017,511,836
66551.297017,511,832
66551.297017,511,832
66551.297017,511,848
66551.308658,510,820
66551.308658,511,832
66551.308658,511,836
66551.308658,512,832
66551.308658,512,836
66551.308658,512,832
66551.308658,512,832
66551.308658,512,836
66551.308658,512,832
66551.308658,512,832
66551.308658,513,836
66551.308658,513,832
66551.308658,513,832
66551.308658,514,836
66551.308658,514,832
66551.308658,514,832
66551.32133600001,515,836
66551.32133600001,515,832
66551.32133600001,516,832
66551.32133600001,515,836
66551.32133600001,515,832
66551.32133600001,515,832
66551.32133600001,514,836
66551.32133600001,515,832
66551.32133600001,515,832
66551.32133600001,515,836
66551.32133600001,515,832
66551.32133600001,516,832
66551.32133600001,515,836
66551.32133600001,515,832
66551.32133600001,515,832
66551.32133600001,515,836
66551.33777700001,515,832
66551.33777700001,515,832
66551.33777700001,515,836
66551.33777700001,515,832
66551.33777700001,516,836
66551.33777700001,516,832
66551.33777700001,516,832
66551.33777700001,516,836
66551.33777700001,516,832
66551.33777700001,515,832
66551.33777700001,515,836
66551.33777700001,516,832
66551.33777700001,516,832
66551.33777700001,516,836
66551.33777700001,517,832
66551.33777700001,516,832
66551.350655,516,836
66551.350655,516,832
66551.350655,516,832
66551.350655,516,836
66551.350655,516,832
66551.350655,516,832
66551.350655,515,836
66551.350655,516,832
66551.350655,515,832
66551.350655,516,836
66551.350655,516,832
66551.350655,516,832
66551.350655,517,836
66551.350655,516,832
66551.350655,517,832
66551.350655,517,836
