timestamp,data1,data2
66579.538192,521,736
66579.538192,524,836
66579.538192,526,832
66579.538192,528,832
66579.538192,529,836
66579.538192,528,832
66579.538192,526,836
66579.538192,526,832
66579.538192,526,832
66579.538192,529,836
66579.538192,532,832
66579.538192,538,832
66579.538192,541,836
66579.538192,544,832
66579.566752,546,832
66579.566752,547,836
66579.566752,545,832
66579.566752,541,832
66579.566752,538,836
66579.566752,535,832
66579.566752,532,832
66579.566752,531,836
66579.566752,531,832
66579.566752,533,832
66579.566752,535,836
66579.566752,534,832
66579.566752,531,832
66579.566752,528,836
66579.566752,527,832
66579.566752,527,832
66579.56752,526,836
66579.56752,528,832
66579.56752,530,832
66579.56752,532,836
66579.56752,535,832
66579.56752,537,832
66579.56752,537,836
66579.56752,535,832
66579.56752,534,836
66579.56752,533,832
66579.56752,533,832
66579.56752,533,836
66579.56752,533,832
66579.56752,534,832
66579.56752,534,836
66579.56752,532,832
66579.578591,530,832
66579.578591,530,836
66579.578591,530,832
66579.578591,532,832
66579.578591,533,836
66579.578591,534,832
66579.578591,535,832
66579.578591,536,836
66579.578591,537,832
66579.578591,538,832
66579.578591,538,836
66579.578591,536,832
66579.578591,533,832
66579.578591,531,836
66579.578591,531,832
66579.578591,531,832
66579.58998399999,532,836
66579.58998399999,532,832
66579.58998399999,531,832
66579.58998399999,529,836
66579.58998399999,526,832
66579.58998399999,521,832
66579.58998399999,520,836
66579.58998399999,522,832
66579.58998399999,524,832
66579.58998399999,526,836
66579.58998399999,528,832
66579.58998399999,531,836
66579.58998399999,533,832
66579.58998399999,534,832
66579.58998399999,535,836
66579.58998399999,538,832
66579.602559,541,832
66579.602559,544,836
66579.602559,546,832
66579.602559,545,832
66579.602559,544,836
66579.602559,542,832
66579.602559,540,832
66579.602559,536,836
66579.602559,533,832
66579.602559,530,832
66579.602559,527,836
66579.602559,523,832
66579.602559,523,832
66579.602559,525,836
66579.602559,530,832
66579.602559,535,832
66579.615018,539,836
66579.615018,540,832
66579.615018,538,832
66579.615018,535,836
66579.615018,533,832
66579.615018,533,832
66579.615018,535,836
66579.615018,539,832
66579.615018,544,832
66579.615018,545,836
66579.615018,544,832
66579.615018,542,836
66579.615018,539,832
66579.615018,536,832
66579.615018,533,836
66579.615018,531,832
66579.631531,530,832
66579.631531,529,836
66579.631531,529,832
66579.631531,529,832
66579.631531,530,836
66579.631531,532,832
66579.631531,534,832
66579.631531,536,836
66579.631531,539,832
66579.631531,542,832
66579.631531,544,836
66579.631531,546,832
66579.631531,547,832
66579.631531,546,836
66579.631531,544,832
66579.631531,541,832
66579.642957,538,836
66579.642957,537,832
66579.642957,536,832
66579.642957,537,836
66579.642957,536,832
66579.642957,535,832
66579.642957,533,836
66579.642957,530,832
66579.642957,529,832
66579.642957,529,836
66579.642957,532,832
66579.642957,533,836
66579.642957,534,832
66579.642957,535,832
66579.642957,538,836
66579.642957,540,832
66579.655968,543,832
66579.655968,547,836
66579.655968,550,832
66579.655968,549,832
66579.655968,546,836
66579.655968,541,832
66579.655968,537,832
66579.655968,532,836
66579.655968,527,832
66579.655968,524,832
66579.655968,522,836
66579.655968,521,832
66579.655968,522,832
66579.655968,522,836
66579.655968,525,832
66579.655968,528,832
66579.672362,530,836
66579.672362,532,832
66579.672362,534,832
66579.672362,536,836
66579.672362,537,832
66579.672362,539,832
66579.672362,541,836
66579.672362,543,832
66579.672362,547,832
66579.672362,550,836
66579.672362,550,832
66579.672362,549,836
66579.672362,547,832
66579.672362,545,832
66579.672362,541,836
66579.672362,536,832
66579.684809,531,832
66579.684809,527,836
66579.684809,523,832
66579.684809,521,832
66579.684809,520,836
66579.684809,521,832
66579.684809,523,832
66579.684809,526,836
66579.684809,528,832
66579.684809,530,832
66579.684809,530,836
66579.684809,529,832
66579.684809,528,832
66579.684809,526,836
66579.684809,524,832
66579.684809,524,832
66579.697295,524,836
66579.697295,524,832
66579.697295,524,832
66579.697295,525,836
66579.697295,526,832
66579.697295,526,832
66579.697295,527,836
66579.697295,527,832
66579.697295,525,836
66579.697295,525,832
66579.697295,525,832
66579.697295,526,836
66579.697295,526,832
66579.697295,527,832
66579.697295,529,836
66579.697295,531,832
66579.708713,533,832
66579.708713,535,836
66579.708713,535,832
66579.708713,533,832
66579.708713,531,836
66579.708713,528,832
66579.708713,526,832
66579.708713,527,836
66579.708713,529,832
66579.708713,530,832
66579.708713,530,836
66579.708713,527,832
66579.708713,523,832
66579.708713,519,836
66579.708713,517,832
66579.708713,517,832
66579.725106,517,836
66579.725106,519,832
66579.725106,522,832
66579.725106,527,836
66579.725106,529,832
66579.725106,532,832
66579.725106,534,836
66579.725106,535,832
66579.725106,536,832
66579.725106,536,836
66579.725106,535,832
66579.725106,534,836
66579.725106,533,832
66579.725106,532,832
66579.725106,528,836
66579.725106,524,832
66579.737756,520,832
66579.737756,516,836
66579.737756,513,832
66579.737756,511,832
66579.737756,509,836
66579.737756,508,832
66579.737756,508,832
66579.737756,510,836
66579.737756,511,832
66579.737756,512,832
66579.737756,515,836
66579.737756,518,832
66579.737756,520,832
66579.737756,521,836
66579.737756,523,832
66579.737756,525,832
66579.750256,526,836
66579.750256,527,832
66579.750256,527,832
66579.750256,526,836
66579.750256,524,832
66579.750256,522,832
66579.750256,521,836
66579.750256,522,832
66579.750256,522,832
66579.750256,521,836
66579.750256,520,832
66579.750256,518,836
66579.750256,516,832
66579.750256,515,832
66579.750256,515,836
66579.750256,515,832
66579.766565,516,832
66579.766565,516,836
66579.766565,517,832
66579.766565,519,832
66579.766565,520,836
66579.766565,521,832
66579.766565,522,832
66579.766565,521,836
66579.766565,521,832
66579.766565,521,832
66579.766565,520,836
66579.766565,519,832
66579.766565,518,832
66579.766565,518,836
66579.766565,519,832
66579.766565,520,832
66579.779251,521,836
66579.779251,521,832
66579.779251,521,832
66579.779251,522,836
66579.779251,523,832
66579.779251,523,832
66579.779251,522,836
66579.779251,521,832
66579.779251,520,836
66579.779251,519,832
66579.779251,519,832
66579.779251,520,836
66579.779251,520,832
66579.779251,521,832
66579.779251,522,836
66579.779251,525,832
66579.790809,526,832
66579.790809,527,836
66579.790809,526,832
66579.790809,525,832
66579.790809,523,836
66579.790809,520,832
66579.790809,519,832
66579.790809,518,836
66579.790809,518,832
66579.790809,519,832
66579.790809,518,836
66579.790809,517,832
66579.790809,516,832
66579.790809,516,836
66579.790809,516,832
66579.790809,515,832
66579.80352,514,836
66579.80352,511,832
66579.80352,506,832
66579.80352,501,836
66579.80352,495,832
66579.80352,491,832
66579.80352,488,836
66579.80352,485,832
66579.80352,483,836
66579.80352,481,832
66579.80352,480,832
66579.80352,478,836
66579.80352,477,832
66579.80352,476,832
66579.80352,476,836
66579.80352,479,832
66579.820151,482,832
66579.820151,485,836
66579.820151,489,832
66579.820151,492,832
66579.820151,494,836
66579.820151,495,832
66579.820151,494,832
66579.820151,492,836
66579.820151,491,832
66579.820151,488,832
66579.820151,486,836
66579.820151,484,832
66579.820151,483,832
66579.820151,482,836
66579.820151,481,832
66579.820151,480,832
66579.831433,480,836
66579.831433,480,832
66579.831433,481,832
66579.831433,481,836
66579.831433,481,832
66579.831433,482,832
66579.831433,481,836
66579.831433,481,832
66579.831433,480,836
66579.831433,480,832
66579.831433,481,832
66579.831433,481,836
66579.831433,481,832
66579.831433,482,832
66579.831433,482,836
66579.831433,482,832
66579.843948,483,832
66579.843948,484,836
66579.843948,485,832
66579.843948,485,832
66579.843948,484,836
66579.843948,483,832
66579.843948,483,832
66579.843948,483,836
66579.843948,485,832
66579.843948,486,832
66579.843948,487,836
66579.843948,489,832
66579.843948,491,832
66579.843948,491,836
66579.843948,490,844
66579.843948,490,820
66579.85642,489,836
66579.85642,489,832
66579.85642,488,832
66579.85642,486,836
66579.85642,486,832
66579.85642,486,832
66579.85642,486,836
66579.85642,486,832
66579.85642,485,836
66579.85642,485,832
66579.85642,484,832
66579.85642,485,836
66579.85642,485,832
66579.85642,485,832
66579.85642,485,836
66579.85642,485,832
66579.869218,484,832
66579.869218,484,836
66579.869218,483,832
66579.869218,483,832
66579.869218,483,836
66579.869218,484,832
66579.869218,484,832
66579.869218,485,836
66579.869218,486,832
66579.869218,486,832
66579.869218,485,836
66579.869218,483,832
66579.869218,482,832
66579.869218,482,836
66579.869218,482,832
66579.869218,482,832
66579.884657,482,836
66579.884657,481,832
66579.884657,481,832
66579.884657,481,836
66579.884657,481,832
66579.884657,481,832
66579.884657,480,836
66579.884657,481,832
66579.884657,480,836
66579.884657,480,832
66579.884657,481,832
66579.884657,482,836
66579.884657,483,832
66579.884657,483,832
66579.884657,483,836
66579.884657,483,832
66579.897321,482,832
66579.897321,481,836
66579.897321,480,832
66579.897321,480,832
66579.897321,479,836
66579.897321,479,832
66579.897321,480,832
66579.897321,481,836
66579.897321,481,832
66579.897321,481,832
66579.897321,479,836
66579.897321,479,832
66579.897321,479,832
66579.897321,480,836
66579.897321,482,832
66579.897321,484,832
66579.909892,486,836
66579.909892,488,832
66579.909892,489,832
66579.909892,490,836
66579.909892,491,832
66579.909892,492,832
66579.909892,493,836
66579.909892,495,832
66579.909892,495,836
66579.909892,494,832
66579.909892,492,832
66579.909892,491,836
66579.909892,490,832
66579.909892,490,832
66579.909892,489,836
66579.909892,488,832
66579.921378,487,832
66579.921378,485,836
66579.921378,484,832
66579.921378,484,832
66579.921378,483,836
66579.921378,483,832
66579.921378,484,832
66579.921378,485,836
66579.921378,487,832
66579.921378,487,832
66579.921378,489,836
66579.921378,490,832
66579.921378,491,832
66579.921378,492,836
66579.921378,493,832
66579.921378,493,832
66579.937599,494,836
66579.937599,495,832
66579.937599,495,832
66579.937599,495,836
66579.937599,493,832
66579.937599,492,832
66579.937599,491,836
66579.937599,489,832
66579.937599,489,832
66579.937599,488,836
66579.937599,487,832
66579.937599,486,836
66579.937599,486,832
66579.937599,486,832
66579.937599,486,836
66579.937599,487,832
66579.950382,488,832
66579.950382,489,836
66579.950382,489,832
66579.950382,490,832
66579.950382,490,836
66579.950382,489,832
66579.950382,491,832
66579.950382,491,836
66579.950382,491,832
66579.950382,490,832
66579.950382,490,836
66579.950382,489,832
66579.950382,490,832
66579.950382,490,836
66579.950382,490,832
66579.950382,491,832
66579.96307299999,493,836
66579.96307299999,494,832
66579.96307299999,496,832
66579.96307299999,497,836
66579.96307299999,499,832
66579.96307299999,500,832
66579.96307299999,502,836
66579.96307299999,503,832
66579.96307299999,504,832
66579.96307299999,504,836
66579.96307299999,503,832
66579.96307299999,503,836
66579.96307299999,504,832
66579.96307299999,504,832
66579.96307299999,505,836
66579.96307299999,505,832
66579.975854,503,832
66579.975854,502,836
66579.975854,501,832
66579.975854,500,832
66579.975854,499,836
66579.975854,497,832
66579.975854,495,832
66579.975854,495,836
66579.975854,495,832
66579.975854,496,832
66579.975854,497,836
66579.975854,497,832
66579.975854,497,832
66579.975854,497,836
66579.975854,497,832
66579.975854,497,832
66579.987475,498,836
66579.987475,500,832
66579.987475,501,832
66579.987475,501,836
66579.987475,501,832
66579.987475,502,832
66579.987475,502,836
66579.987475,503,832
66579.987475,503,832
66579.987475,504,836
66579.987475,505,832
66579.987475,506,836
66579.987475,506,832
66579.987475,506,832
66579.987475,507,836
66579.987475,507,832
66580.00378,508,832
66580.00378,509,836
66580.00378,510,832
66580.00378,512,832
66580.00378,512,836
66580.00378,513,832
66580.00378,514,832
66580.00378,513,836
66580.00378,513,832
66580.00378,513,832
66580.00378,513,836
66580.00378,512,832
66580.00378,511,832
66580.00378,510,836
66580.00378,509,832
66580.00378,509,832
66580.01637699999,508,836
66580.01637699999,507,832
66580.01637699999,507,832
66580.01637699999,508,836
66580.01637699999,508,832
66580.01637699999,508,832
66580.01637699999,507,836
66580.01637699999,507,832
66580.01637699999,507,836
66580.01637699999,508,832
66580.01637699999,509,832
66580.01637699999,510,836
66580.01637699999,510,832
66580.01637699999,510,832
66580.01637699999,510,836
66580.01637699999,511,832
66580.028983,511,832
66580.028983,511,836
66580.028983,511,832
66580.028983,511,832
66580.028983,511,836
66580.028983,510,832
66580.028983,510,832
66580.028983,510,836
66580.028983,510,832
66580.028983,510,832
66580.028983,511,836
66580.028983,512,832
66580.028983,513,832
66580.028983,512,836
66580.028983,511,832
66580.028983,511,832
66580.044222,511,836
66580.044222,510,832
66580.044222,510,832
66580.044222,511,836
66580.044222,511,832
66580.044222,513,832
66580.044222,514,836
66580.044222,515,832
66580.044222,516,832
66580.044222,517,836
66580.044222,518,832
66580.044222,519,836
66580.044222,520,832
66580.044222,521,832
66580.044222,521,836
66580.044222,522,832
66580.056904,523,832
66580.056904,523,836
66580.056904,524,832
66580.056904,524,832
66580.056904,525,836
66580.056904,526,832
66580.056904,526,832
66580.056904,526,836
66580.056904,527,832
66580.056904,526,832
66580.056904,527,836
66580.056904,527,832
66580.056904,526,832
66580.056904,526,836
66580.056904,525,832
66580.056904,525,832
66580.069581,525,836
66580.069581,525,832
66580.069581,525,832
66580.069581,523,836
66580.069581,523,832
66580.069581,523,832
66580.069581,522,836
66580.069581,522,832
66580.069581,522,836
66580.069581,522,832
66580.069581,522,832
66580.069581,521,836
66580.069581,520,832
66580.069581,519,832
66580.069581,518,836
66580.069581,517,832
66580.081154,517,832
66580.081154,518,836
66580.081154,517,832
66580.081154,517,832
66580.081154,516,836
66580.081154,517,832
66580.081154,519,832
66580.081154,521,836
66580.081154,523,832
66580.081154,523,832
66580.081154,523,836
66580.081154,523,832
66580.081154,524,832
66580.081154,524,836
66580.081154,524,832
66580.081154,524,832
66580.097771,524,836
66580.097771,525,832
66580.097771,525,832
66580.097771,526,836
66580.097771,526,832
66580.097771,525,832
66580.097771,524,836
66580.097771,523,832
66580.097771,523,836
66580.097771,523,832
66580.097771,523,832
66580.097771,524,836
66580.097771,525,832
66580.097771,525,832
66580.097771,527,836
66580.097771,527,832
66580.110549,527,832
66580.110549,527,836
66580.110549,526,832
66580.110549,526,832
66580.110549,525,836
66580.110549,524,832
66580.110549,524,832
66580.110549,523,836
66580.110549,524,832
66580.110549,524,832
66580.110549,524,836
66580.110549,525,832
66580.110549,525,832
66580.110549,525,836
66580.110549,525,832
66580.110549,525,832
66580.12325199999,524,836
66580.12325199999,524,832
66580.12325199999,524,832
66580.12325199999,524,836
66580.12325199999,524,832
66580.12325199999,525,832
66580.12325199999,524,836
66580.12325199999,524,832
66580.12325199999,524,836
66580.12325199999,524,832
66580.12325199999,523,832
66580.12325199999,522,836
66580.12325199999,522,832
66580.12325199999,522,832
66580.12325199999,523,836
66580.12325199999,522,832
66580.139713,521,832
66580.139713,522,836
66580.139713,522,832
66580.139713,524,832
66580.139713,525,836
66580.139713,525,832
66580.139713,526,832
66580.139713,527,836
66580.139713,528,832
66580.139713,529,832
66580.139713,530,836
66580.139713,530,832
66580.139713,530,832
66580.139713,530,836
66580.139713,529,832
66580.139713,530,832
66580.151163,530,836
66580.151163,530,832
66580.151163,529,832
66580.151163,529,836
66580.151163,530,832
66580.151163,530,832
66580.151163,530,836
66580.151163,529,832
66580.151163,529,836
66580.151163,529,832
66580.151163,528,832
66580.151163,527,836
66580.151163,527,832
66580.151163,526,832
66580.151163,526,836
66580.151163,525,832
66580.163803,525,832
66580.163803,525,836
66580.163803,525,832
66580.163803,526,832
66580.163803,527,836
66580.163803,528,832
66580.163803,529,832
66580.163803,529,836
66580.163803,529,832
66580.163803,529,832
66580.163803,530,836
66580.163803,531,832
66580.163803,531,832
66580.163803,531,836
66580.163803,532,832
66580.163803,533,832
66580.176437,534,836
66580.176437,536,832
66580.176437,538,832
66580.176437,539,836
66580.176437,539,832
66580.176437,538,832
66580.176437,537,836
66580.176437,538,832
66580.176437,537,836
66580.176437,538,832
66580.176437,538,832
66580.176437,538,836
66580.176437,537,832
66580.176437,539,832
66580.176437,539,836
66580.176437,538,832
66580.19289199999,538,832
66580.19289199999,538,836
66580.19289199999,538,832
66580.19289199999,538,832
66580.19289199999,537,836
66580.19289199999,537,832
66580.19289199999,537,832
66580.19289199999,538,836
66580.19289199999,538,832
66580.19289199999,538,832
66580.19289199999,538,836
66580.19289199999,538,832
66580.19289199999,539,832
66580.19289199999,539,836
66580.19289199999,538,832
66580.19289199999,537,832
66580.204277,536,836
66580.204277,536,844
66580.204277,536,820
66580.204277,536,836
66580.204277,537,832
66580.204277,537,832
66580.204277,537,836
66580.204277,539,832
66580.204277,539,836
66580.204277,540,832
66580.204277,541,832
66580.204277,542,836
66580.204277,543,832
66580.204277,543,832
66580.204277,544,836
66580.204277,543,832
66580.216751,544,832
66580.216751,546,836
66580.216751,548,832
66580.216751,549,832
66580.216751,549,836
66580.216751,550,832
66580.216751,549,832
66580.216751,549,836
66580.216751,548,832
66580.216751,547,832
66580.216751,547,836
66580.216751,544,832
66580.216751,542,832
66580.216751,540,836
66580.216751,539,832
66580.216751,538,832
66580.23308399999,537,836
66580.23308399999,535,832
66580.23308399999,533,832
66580.23308399999,530,836
66580.23308399999,529,832
66580.23308399999,528,832
66580.23308399999,527,836
66580.23308399999,526,832
66580.23308399999,526,836
66580.23308399999,527,832
66580.23308399999,527,832
66580.23308399999,527,836
66580.23308399999,527,832
66580.23308399999,529,832
66580.23308399999,530,836
66580.23308399999,529,832
66580.245723,528,832
66580.245723,528,836
66580.245723,527,832
66580.245723,525,832
66580.245723,525,836
66580.245723,524,832
66580.245723,522,832
66580.245723,521,836
66580.245723,520,832
66580.245723,520,832
66580.245723,518,836
66580.245723,517,832
66580.245723,516,832
66580.245723,515,836
66580.245723,514,832
66580.245723,513,832
66580.257176,511,836
66580.257176,511,832
66580.257176,510,832
66580.257176,510,836
66580.257176,510,832
66580.257176,509,832
66580.257176,510,836
66580.257176,511,832
66580.257176,512,832
66580.257176,512,836
66580.257176,513,832
66580.257176,514,836
66580.257176,514,832
66580.257176,514,832
66580.257176,513,836
66580.257176,513,832
66580.269892,514,832
66580.269892,514,836
66580.269892,514,832
66580.269892,513,832
66580.269892,512,836
66580.269892,513,832
66580.269892,514,832
66580.269892,514,836
66580.269892,514,832
66580.269892,514,832
66580.269892,514,836
66580.269892,514,832
66580.269892,514,832
66580.269892,514,836
66580.269892,513,832
66580.269892,514,832
66580.28633,514,836
66580.28633,515,832
66580.28633,515,832
66580.28633,517,836
66580.28633,517,832
66580.28633,517,832
66580.28633,517,836
66580.28633,517,832
66580.28633,516,836
66580.28633,516,832
66580.28633,515,832
66580.28633,515,836
66580.28633,515,832
66580.28633,516,832
66580.28633,517,836
66580.28633,517,832
66580.298985,517,832
66580.298985,517,836
66580.298985,518,832
66580.298985,518,832
66580.298985,519,836
66580.298985,519,832
66580.298985,519,832
66580.298985,519,836
66580.298985,519,832
66580.298985,519,832
66580.298985,519,836
66580.298985,518,832
66580.298985,519,832
66580.298985,519,836
66580.298985,520,832
66580.298985,521,832
66580.31053,522,836
66580.31053,522,832
66580.31053,522,832
66580.31053,521,836
66580.31053,521,832
66580.31053,522,832
66580.31053,522,836
66580.31053,523,832
66580.31053,524,832
66580.31053,524,836
66580.31053,525,832
66580.31053,525,836
66580.31053,525,832
66580.31053,525,832
66580.31053,525,836
66580.31053,525,832
66580.323155,525,832
66580.323155,525,836
66580.323155,526,832
66580.323155,525,832
66580.323155,525,836
66580.323155,525,832
66580.323155,525,832
66580.323155,526,836
66580.323155,527,832
66580.323155,527,832
66580.323155,527,836
66580.323155,527,832
66580.323155,528,832
66580.323155,528,836
66580.323155,530,832
66580.323155,531,832
66580.33579,531,836
66580.33579,531,832
66580.33579,531,832
66580.33579,531,836
66580.33579,530,832
66580.33579,531,832
66580.33579,530,836
66580.33579,530,832
66580.33579,530,836
66580.33579,530,832
66580.33579,530,832
66580.33579,529,836
66580.33579,530,832
66580.33579,531,832
66580.33579,532,836
66580.33579,533,832
66580.352257,533,832
66580.352257,533,836
66580.352257,533,832
66580.352257,533,832
66580.352257,533,836
66580.352257,533,832
66580.352257,532,832
66580.352257,531,836
66580.352257,530,832
66580.352257,530,832
66580.352257,530,836
66580.352257,531,832
66580.352257,532,832
66580.352257,533,836
66580.352257,534,832
66580.352257,534,832
66580.363574,534,836
66580.363574,535,832
66580.363574,535,832
66580.363574,534,836
66580.363574,534,832
66580.363574,533,832
66580.363574,533,836
66580.363574,534,832
66580.363574,534,832
66580.363574,534,836
66580.363574,534,832
66580.363574,534,836
66580.363574,534,832
66580.363574,534,832
66580.363574,535,836
66580.363574,535,832
66580.376099,536,832
66580.376099,536,836
66580.376099,535,832
66580.376099,534,832
66580.376099,534,836
66580.376099,534,832
66580.376099,533,832
66580.376099,532,836
66580.376099,532,832
66580.376099,532,832
66580.376099,532,836
66580.376099,533,832
66580.376099,534,832
66580.376099,534,836
66580.376099,535,832
66580.376099,534,832
66580.38883699999,535,836
66580.38883699999,535,832
66580.38883699999,535,832
66580.38883699999,536,836
66580.38883699999,537,832
66580.38883699999,536,832
66580.38883699999,536,836
66580.38883699999,536,832
66580.38883699999,536,848
66580.38883699999,537,820
66580.38883699999,536,832
66580.38883699999,537,836
66580.38883699999,537,832
66580.38883699999,537,832
66580.38883699999,538,836
66580.38883699999,539,832
66580.404971,540,832
66580.404971,540,836
66580.404971,541,832
66580.404971,542,832
66580.404971,544,836
66580.404971,545,832
66580.404971,544,832
66580.404971,544,836
66580.404971,543,832
66580.404971,543,832
66580.404971,543,836
66580.404971,542,832
66580.404971,542,832
66580.404971,541,836
66580.404971,541,832
66580.404971,541,832
66580.417623,541,836
66580.417623,541,832
66580.417623,540,832
66580.417623,539,836
66580.417623,539,832
66580.417623,538,832
66580.417623,539,836
66580.417623,539,832
66580.417623,539,832
66580.417623,539,836
66580.417623,539,832
66580.417623,539,836
66580.417623,539,832
66580.417623,538,832
66580.417623,537,836
66580.417623,537,832
66580.430076,537,832
66580.430076,538,836
66580.430076,538,832
66580.430076,538,832
66580.430076,538,836
66580.430076,538,832
66580.430076,537,832
66580.430076,536,836
66580.430076,535,832
66580.430076,534,832
66580.430076,533,836
66580.430076,532,832
66580.430076,532,832
66580.430076,532,836
66580.430076,531,832
66580.430076,530,832
66580.441531,529,836
66580.441531,529,832
66580.441531,528,832
66580.441531,527,836
66580.441531,527,832
66580.441531,526,832
66580.441531,526,836
66580.441531,525,832
66580.441531,525,832
66580.441531,525,836
66580.441531,525,832
66580.441531,525,836
66580.441531,525,832
66580.441531,525,832
66580.441531,525,836
66580.441531,525,832
66580.457945,526,832
66580.457945,525,836
66580.457945,526,832
66580.457945,525,832
66580.457945,524,836
66580.457945,524,832
66580.457945,524,832
66580.457945,525,836
66580.457945,525,832
66580.457945,525,832
66580.457945,524,836
66580.457945,524,832
66580.457945,524,832
66580.457945,523,836
66580.457945,523,832
66580.457945,522,832
66580.470669,523,836
66580.470669,523,832
66580.470669,524,832
66580.470669,525,836
66580.470669,525,832
66580.470669,525,832
66580.470669,525,836
66580.470669,525,832
66580.470669,524,832
66580.470669,524,836
66580.470669,524,832
66580.470669,523,836
66580.470669,523,832
66580.470669,523,832
66580.470669,524,836
66580.470669,524,832
66580.483364,524,832
66580.483364,525,836
66580.483364,524,832
66580.483364,524,832
66580.483364,525,836
66580.483364,525,832
66580.483364,524,832
66580.483364,523,836
66580.483364,523,832
66580.483364,523,832
66580.483364,523,836
66580.483364,523,832
66580.483364,523,832
66580.483364,523,836
66580.483364,523,832
66580.483364,523,832
66580.494855,523,836
66580.494855,522,832
66580.494855,522,832
66580.494855,522,836
66580.494855,522,832
66580.494855,521,832
66580.494855,521,836
66580.494855,521,832
66580.494855,522,832
66580.494855,523,836
66580.494855,524,832
66580.494855,524,836
66580.494855,525,832
66580.494855,525,832
66580.494855,526,836
66580.494855,528,832
66580.511327,529,832
66580.511327,529,836
66580.511327,530,832
66580.511327,531,832
66580.511327,532,836
66580.511327,532,832
66580.511327,532,832
66580.511327,531,836
66580.511327,530,832
66580.511327,529,832
66580.511327,529,836
66580.511327,529,832
66580.511327,528,832
66580.511327,527,836
66580.511327,525,832
66580.511327,524,832
66580.523931,523,836
66580.523931,523,832
66580.523931,522,832
66580.523931,522,836
66580.523931,522,832
66580.523931,523,832
66580.523931,522,836
66580.523931,522,832
66580.523931,523,836
66580.523931,523,832
66580.523931,523,832
66580.523931,524,836
66580.523931,524,832
66580.523931,525,832
66580.523931,525,836
66580.523931,526,832
66580.536388,526,832
66580.536388,525,836
66580.536388,525,832
66580.536388,525,832
66580.536388,525,836
66580.536388,526,832
66580.536388,527,832
66580.536388,528,836
66580.536388,528,832
66580.536388,529,832
66580.536388,528,836
66580.536388,528,832
66580.536388,527,832
66580.536388,527,836
66580.536388,528,832
66580.536388,528,832
66580.54904,529,836
66580.54904,529,832
66580.54904,530,832
66580.54904,530,836
66580.54904,530,844
66580.54904,530,820
66580.54904,528,836
66580.54904,528,832
66580.54904,528,832
66580.54904,527,836
66580.54904,527,832
66580.54904,527,836
66580.54904,526,832
66580.54904,526,832
66580.54904,526,836
66580.54904,527,832
66580.565487,528,832
66580.565487,528,836
66580.565487,528,832
66580.565487,529,832
66580.565487,529,836
66580.565487,529,832
66580.565487,530,832
66580.565487,530,836
66580.565487,531,832
66580.565487,531,832
66580.565487,531,836
66580.565487,531,832
66580.565487,532,832
66580.565487,532,836
66580.565487,532,832
66580.565487,531,832
66580.576919,531,836
66580.576919,530,832
66580.576919,530,832
66580.576919,531,836
66580.576919,532,832
66580.576919,532,832
66580.576919,532,836
66580.576919,532,832
66580.576919,533,836
66580.576919,534,832
66580.576919,535,832
66580.576919,537,836
66580.576919,539,832
66580.576919,539,832
66580.576919,538,836
66580.576919,537,832
66580.589613,536,832
66580.589613,535,836
66580.589613,533,832
66580.589613,531,832
66580.589613,530,836
66580.589613,530,832
66580.589613,529,832
66580.589613,529,836
66580.589613,529,832
66580.589613,530,832
66580.589613,531,836
66580.589613,531,832
66580.589613,532,832
66580.589613,533,836
66580.589613,533,832
66580.589613,534,832
66580.606167,534,836
66580.606167,534,832
66580.606167,535,832
66580.606167,535,836
66580.606167,536,832
66580.606167,535,832
66580.606167,536,836
66580.606167,535,832
66580.606167,535,832
66580.606167,535,836
66580.606167,536,832
66580.606167,537,836
66580.606167,538,832
66580.606167,538,832
66580.606167,538,836
66580.606167,539,832
66580.61888000001,539,832
66580.61888000001,538,836
66580.61888000001,538,832
66580.61888000001,538,832
66580.61888000001,539,836
66580.61888000001,540,832
66580.61888000001,541,832
66580.61888000001,542,836
66580.61888000001,542,832
66580.61888000001,542,832
66580.61888000001,541,836
66580.61888000001,540,832
66580.61888000001,539,832
66580.61888000001,538,836
66580.61888000001,537,832
66580.61888000001,536,832
66580.630284,536,836
66580.630284,535,832
66580.630284,536,832
66580.630284,535,836
66580.630284,536,832
66580.630284,536,832
66580.630284,537,836
66580.630284,537,832
66580.630284,537,832
66580.630284,537,836
66580.630284,538,832
66580.630284,539,836
66580.630284,539,832
66580.630284,539,832
66580.630284,538,836
66580.630284,538,832
66580.642993,537,832
66580.642993,537,836
66580.642993,537,832
66580.642993,537,832
66580.642993,538,836
66580.642993,539,832
66580.642993,539,832
66580.642993,540,836
66580.642993,541,832
66580.642993,543,832
66580.642993,543,836
66580.642993,545,832
66580.642993,546,832
66580.642993,547,836
66580.642993,547,832
66580.642993,548,832
66580.659342,549,836
66580.659342,549,832
66580.659342,550,832
66580.659342,550,836
66580.659342,550,832
66580.659342,550,832
66580.659342,549,836
66580.659342,550,832
66580.659342,550,832
66580.659342,550,836
66580.659342,549,832
66580.659342,548,836
66580.659342,548,832
66580.659342,548,832
66580.659342,547,836
66580.659342,547,832
66580.671886,546,832
66580.671886,545,836
66580.671886,543,832
66580.671886,542,832
66580.671886,542,836
66580.671886,542,832
66580.671886,542,832
66580.671886,542,836
66580.671886,543,832
66580.671886,543,832
66580.671886,542,836
66580.671886,542,832
66580.671886,541,832
66580.671886,541,836
66580.671886,540,832
66580.671886,540,832
66580.683315,541,836
66580.683315,540,832
66580.683315,540,832
66580.683315,540,836
66580.683315,540,832
66580.683315,540,832
66580.683315,539,836
66580.683315,539,832
66580.683315,539,836
66580.683315,540,832
66580.683315,540,832
66580.683315,540,836
66580.683315,541,832
66580.683315,541,832
66580.683315,541,836
66580.683315,543,832
66580.699733,543,832
66580.699733,544,836
66580.699733,544,832
66580.699733,543,832
66580.699733,542,836
66580.699733,540,832
66580.699733,539,832
66580.699733,538,836
66580.699733,537,832
66580.699733,537,832
66580.699733,537,836
66580.699733,537,832
66580.699733,537,832
66580.699733,537,836
66580.699733,537,832
66580.699733,537,832
66580.712413,537,836
66580.712413,537,832
66580.712413,537,832
66580.712413,537,836
66580.712413,538,832
66580.712413,538,832
66580.712413,538,836
66580.712413,539,832
66580.712413,539,832
66580.712413,539,836
66580.712413,539,832
66580.712413,540,836
66580.712413,541,832
66580.712413,541,832
66580.712413,541,836
66580.712413,540,832
66580.725238,540,832
66580.725238,539,836
66580.725238,538,832
66580.725238,538,832
66580.725238,539,836
66580.725238,538,832
66580.725238,538,832
66580.725238,538,836
66580.725238,538,832
66580.725238,538,832
66580.725238,539,836
66580.725238,539,832
66580.725238,540,832
66580.725238,540,836
66580.725238,541,832
66580.725238,541,832
66580.736423,542,836
66580.736423,542,832
66580.736423,542,832
66580.736423,542,836
66580.736423,541,832
66580.736423,541,832
66580.736423,542,836
66580.736423,541,832
66580.736423,542,832
66580.736423,543,836
66580.736423,544,832
66580.736423,545,848
66580.736423,545,820
66580.736423,546,832
66580.736423,546,836
66580.736423,547,832
66580.752792,546,832
66580.752792,546,836
66580.752792,545,832
66580.752792,544,832
66580.752792,543,836
66580.752792,543,832
66580.752792,542,832
66580.752792,542,836
66580.752792,542,832
66580.752792,541,832
66580.752792,541,836
66580.752792,541,832
66580.752792,541,832
66580.752792,541,836
66580.752792,541,832
66580.752792,541,832
66580.765316,541,836
66580.765316,540,832
66580.765316,541,832
66580.765316,541,836
66580.765316,542,832
66580.765316,542,832
66580.765316,542,836
66580.765316,542,832
66580.765316,543,832
66580.765316,542,836
66580.765316,543,832
66580.765316,543,836
66580.765316,544,832
66580.765316,544,832
66580.765316,545,836
66580.765316,545,832
66580.777842,546,832
66580.777842,547,836
66580.777842,548,832
66580.777842,548,832
66580.777842,548,836
66580.777842,547,832
66580.777842,547,832
66580.777842,546,836
66580.777842,545,832
66580.777842,544,832
66580.777842,544,836
66580.777842,543,832
66580.777842,543,832
66580.777842,543,836
66580.777842,542,832
66580.777842,541,832
66580.79047600001,541,836
66580.79047600001,541,832
66580.79047600001,541,832
66580.79047600001,540,836
66580.79047600001,539,832
66580.79047600001,539,832
66580.79047600001,540,836
66580.79047600001,541,832
66580.79047600001,542,836
66580.79047600001,542,832
66580.79047600001,543,832
66580.79047600001,542,836
66580.79047600001,542,832
66580.79047600001,543,832
66580.79047600001,543,836
66580.79047600001,543,832
66580.806875,543,832
66580.806875,542,836
66580.806875,542,832
66580.806875,541,832
66580.806875,541,836
66580.806875,541,832
66580.806875,540,832
66580.806875,540,836
66580.806875,540,832
66580.806875,540,832
66580.806875,541,836
66580.806875,541,832
66580.806875,543,832
66580.806875,544,836
66580.806875,543,832
66580.806875,543,832
66580.81824400001,543,836
66580.81824400001,542,832
66580.81824400001,542,832
66580.81824400001,542,836
66580.81824400001,542,832
66580.81824400001,542,832
66580.81824400001,542,836
66580.81824400001,542,832
66580.81824400001,542,832
66580.81824400001,542,836
66580.81824400001,543,832
66580.81824400001,543,836
66580.81824400001,545,832
66580.81824400001,545,832
66580.81824400001,546,836
66580.81824400001,547,832
66580.830978,547,832
66580.830978,547,836
66580.830978,547,832
66580.830978,546,832
66580.830978,546,836
66580.830978,546,832
66580.830978,546,832
66580.830978,546,836
66580.830978,545,832
66580.830978,544,832
66580.830978,544,836
66580.830978,543,832
66580.830978,543,832
66580.830978,543,836
66580.830978,543,832
66580.830978,543,832
66580.84347600001,543,836
66580.84347600001,543,832
66580.84347600001,544,832
66580.84347600001,544,836
66580.84347600001,545,832
66580.84347600001,546,832
66580.84347600001,547,836
66580.84347600001,547,832
66580.84347600001,547,832
66580.84347600001,548,836
66580.84347600001,549,832
66580.84347600001,549,836
66580.84347600001,550,832
66580.84347600001,551,832
66580.84347600001,551,836
66580.84347600001,551,832
66580.856097,551,832
66580.856097,552,836
66580.856097,552,832
66580.856097,553,832
66580.856097,553,836
66580.856097,554,832
66580.856097,553,832
66580.856097,553,836
66580.856097,553,832
66580.856097,553,832
66580.856097,553,836
66580.856097,554,832
66580.856097,555,832
66580.856097,555,836
66580.856097,556,832
66580.856097,556,832
66580.87240200001,555,836
66580.87240200001,556,832
66580.87240200001,557,832
66580.87240200001,556,836
66580.87240200001,554,832
66580.87240200001,553,832
66580.87240200001,552,836
66580.87240200001,551,832
66580.87240200001,550,836
66580.87240200001,550,832
66580.87240200001,549,832
66580.87240200001,549,836
66580.87240200001,548,832
66580.87240200001,548,832
66580.87240200001,548,836
66580.87240200001,548,832
66580.88382,548,832
66580.88382,548,836
66580.88382,548,832
66580.88382,548,832
66580.88382,549,836
66580.88382,549,832
66580.88382,550,832
66580.88382,551,836
66580.88382,551,832
66580.88382,551,832
66580.88382,551,836
66580.88382,552,832
66580.88382,551,832
66580.88382,552,836
66580.88382,552,832
66580.88382,552,832
66580.89625599999,553,836
66580.89625599999,552,832
66580.89625599999,552,832
66580.89625599999,552,836
66580.89625599999,552,832
66580.89625599999,552,832
66580.89625599999,552,836
66580.89625599999,553,836
66580.89625599999,554,832
66580.89625599999,554,832
66580.89625599999,554,832
66580.89625599999,555,836
66580.89625599999,556,832
66580.89625599999,555,832
66580.89625599999,555,836
66580.89625599999,555,832
66580.908958,555,832
66580.908958,554,836
66580.908958,553,832
66580.908958,552,832
66580.908958,550,836
66580.908958,549,832
66580.908958,548,832
66580.908958,546,836
66580.908958,546,832
66580.908958,545,832
66580.908958,546,836
66580.908958,546,832
66580.908958,546,832
66580.908958,546,836
66580.908958,547,832
66580.908958,547,832
66580.925459,548,836
66580.925459,548,832
66580.925459,548,832
66580.925459,548,836
66580.925459,548,832
66580.925459,548,832
66580.925459,550,836
66580.925459,552,832
66580.925459,554,836
66580.925459,557,832
66580.925459,560,832
66580.925459,562,836
66580.925459,564,832
66580.925459,565,832
66580.925459,565,836
66580.925459,565,832
66580.938078,566,832
66580.938078,566,836
66580.938078,567,832
66580.938078,568,832
66580.938078,568,836
66580.938078,569,832
66580.938078,570,832
66580.938078,571,836
66580.938078,573,832
66580.938078,575,832
66580.938078,578,836
66580.938078,581,832
66580.938078,584,832
66580.938078,587,836
66580.938078,589,832
66580.938078,591,832
66580.949494,593,836
66580.949494,596,832
66580.949494,599,832
66580.949494,601,836
66580.949494,604,832
66580.949494,607,832
66580.949494,610,836
66580.949494,614,832
66580.949494,617,836
66580.949494,620,832
66580.949494,622,832
66580.949494,624,836
66580.949494,627,832
66580.949494,629,832
66580.949494,631,836
66580.949494,634,832
66580.961975,636,832
66580.961975,639,836
66580.961975,642,832
66580.961975,646,832
66580.961975,648,836
66580.961975,652,832
66580.961975,653,832
66580.961975,655,836
66580.961975,657,832
66580.961975,659,832
66580.961975,661,836
66580.961975,662,832
66580.961975,664,832
66580.961975,665,836
66580.961975,667,832
66580.961975,670,832
66580.97841,672,836
66580.97841,674,832
66580.97841,675,832
66580.97841,676,836
66580.97841,677,832
66580.97841,677,832
66580.97841,678,836
66580.97841,679,832
66580.97841,680,832
66580.97841,681,836
66580.97841,682,832
66580.97841,684,836
66580.97841,685,832
66580.97841,685,832
66580.97841,686,836
66580.97841,686,832
66580.991112,686,832
66580.991112,686,836
66580.991112,686,832
66580.991112,686,832
66580.991112,686,836
66580.991112,686,832
66580.991112,687,832
66580.991112,687,836
66580.991112,688,832
66580.991112,688,832
66580.991112,688,836
66580.991112,687,832
66580.991112,685,832
66580.991112,684,836
66580.991112,681,832
66580.991112,680,832
66581.003717,678,836
66581.003717,677,832
66581.003717,676,832
66581.003717,675,836
66581.003717,675,832
66581.003717,674,832
66581.003717,674,836
66581.003717,673,832
66581.003717,673,836
66581.003717,674,832
66581.003717,674,832
66581.003717,674,836
66581.003717,674,832
66581.003717,674,832
66581.003717,673,836
66581.003717,673,832
66581.015073,674,832
66581.015073,674,836
66581.015073,674,832
66581.015073,673,832
66581.015073,674,836
66581.015073,674,832
66581.015073,674,832
66581.015073,674,836
66581.015073,674,832
66581.015073,673,832
66581.015073,673,836
66581.015073,674,832
66581.015073,675,832
66581.015073,677,836
66581.015073,679,832
66581.015073,681,832
66581.0315,683,836
66581.0315,684,832
66581.0315,684,832
66581.0315,684,836
66581.0315,683,832
66581.0315,682,832
66581.0315,682,836
66581.0315,682,832
66581.0315,682,836
66581.0315,683,832
66581.0315,685,832
66581.0315,688,836
66581.0315,689,832
66581.0315,692,832
66581.0315,696,836
66581.0315,699,832
66581.044058,702,832
66581.044058,704,836
66581.044058,707,832
66581.044058,711,832
66581.044058,715,836
66581.044058,719,832
66581.044058,723,832
66581.044058,728,836
66581.044058,732,832
66581.044058,736,832
66581.044058,741,836
66581.044058,745,832
66581.044058,749,832
66581.044058,754,836
66581.044058,758,832
66581.044058,762,832
66581.056837,767,836
66581.056837,770,832
66581.056837,773,832
66581.056837,776,836
66581.056837,780,832
66581.056837,784,832
66581.056837,788,836
66581.056837,793,832
66581.056837,797,836
66581.056837,802,832
66581.056837,807,832
66581.056837,810,836
66581.056837,814,832
66581.056837,818,832
66581.056837,819,836
66581.056837,820,832
66581.073356,822,832
66581.073356,825,836
66581.073356,828,832
66581.073356,831,832
66581.073356,835,836
66581.073356,839,832
66581.073356,844,832
66581.073356,847,836
66581.073356,851,832
66581.073356,852,832
66581.073356,854,836
66581.073356,856,832
66581.073356,858,832
66581.073356,860,836
66581.073356,862,832
66581.073356,864,832
66581.084646,864,836
66581.084646,865,832
66581.084646,865,832
66581.084646,867,836
66581.084646,868,832
66581.084646,869,832
66581.084646,871,836
66581.084646,872,832
66581.084646,874,832
66581.084646,874,836
66581.084646,876,832
66581.084646,877,836
66581.084646,877,832
66581.084646,876,832
66581.084646,874,848
66581.084646,874,820
66581.09727099999,874,832
66581.09727099999,875,836
66581.09727099999,875,832
66581.09727099999,875,832
66581.09727099999,873,836
66581.09727099999,872,832
66581.09727099999,871,832
66581.09727099999,871,836
66581.09727099999,870,832
66581.09727099999,868,832
66581.09727099999,869,836
66581.09727099999,868,832
66581.09727099999,867,832
66581.09727099999,865,836
66581.09727099999,864,832
66581.09727099999,864,832
66581.109968,863,836
66581.109968,862,832
66581.109968,862,832
66581.109968,861,836
66581.109968,859,832
66581.109968,858,832
66581.109968,857,836
66581.109968,855,832
66581.109968,854,836
66581.109968,853,832
66581.109968,851,832
66581.109968,849,836
66581.109968,846,832
66581.109968,845,832
66581.109968,844,836
66581.109968,844,832
66581.12644,842,832
66581.12644,841,836
66581.12644,840,832
66581.12644,838,832
66581.12644,835,836
66581.12644,834,832
66581.12644,833,832
66581.12644,832,836
66581.12644,832,832
66581.12644,830,832
66581.12644,828,836
66581.12644,826,832
66581.12644,824,832
66581.12644,821,836
66581.12644,818,832
66581.12644,816,832
66581.139025,814,836
66581.139025,812,832
66581.139025,808,832
66581.139025,805,836
66581.139025,802,832
66581.139025,801,832
66581.139025,800,836
66581.139025,798,832
66581.139025,797,832
66581.139025,795,836
66581.139025,793,832
66581.139025,791,836
66581.139025,788,832
66581.139025,785,832
66581.139025,782,836
66581.139025,778,832
66581.150723,776,832
66581.150723,773,836
66581.150723,772,832
66581.150723,770,832
66581.150723,768,836
66581.150723,766,832
66581.150723,764,832
66581.150723,761,836
66581.150723,760,832
66581.150723,758,832
66581.150723,758,836
66581.150723,755,832
66581.150723,752,832
66581.150723,751,836
66581.150723,749,832
66581.150723,747,832
66581.166778,744,836
66581.166778,742,832
66581.166778,739,832
66581.166778,737,836
66581.166778,734,832
66581.166778,732,832
66581.166778,730,836
66581.166778,728,832
66581.166778,726,836
66581.166778,724,832
66581.166778,723,832
66581.166778,721,836
66581.166778,720,832
66581.166778,719,832
66581.166778,718,836
66581.166778,717,832
66581.17925,715,832
66581.17925,714,836
66581.17925,712,832
66581.17925,710,832
66581.17925,708,836
66581.17925,707,832
66581.17925,707,832
66581.17925,708,836
66581.17925,708,832
66581.17925,707,832
66581.17925,707,836
66581.17925,706,832
66581.17925,705,832
66581.17925,703,836
66581.17925,700,832
66581.17925,697,832
66581.191903,696,836
66581.191903,695,832
66581.191903,695,832
66581.191903,696,836
66581.191903,696,832
66581.191903,695,832
66581.191903,692,836
66581.191903,691,832
66581.191903,689,836
66581.191903,687,832
66581.191903,686,832
66581.191903,685,836
66581.191903,685,832
66581.191903,686,832
66581.191903,688,836
66581.191903,688,832
66581.20327499999,689,832
66581.20327499999,690,836
66581.20327499999,691,832
66581.20327499999,691,832
66581.20327499999,690,836
66581.20327499999,688,832
66581.20327499999,689,832
66581.20327499999,691,836
66581.20327499999,691,832
66581.20327499999,693,832
66581.20327499999,695,836
66581.20327499999,696,832
66581.20327499999,697,832
66581.20327499999,698,836
66581.20327499999,699,832
66581.20327499999,698,832
66581.21979599999,697,836
66581.21979599999,696,832
66581.21979599999,695,832
66581.21979599999,695,836
66581.21979599999,695,832
66581.21979599999,697,832
66581.21979599999,698,836
66581.21979599999,700,832
66581.21979599999,701,836
66581.21979599999,700,832
66581.21979599999,699,832
66581.21979599999,698,836
66581.21979599999,697,832
66581.21979599999,697,832
66581.21979599999,696,836
66581.21979599999,696,832
66581.232373,696,832
66581.232373,696,836
66581.232373,695,832
66581.232373,695,832
66581.232373,695,836
66581.232373,695,832
66581.232373,695,832
66581.232373,696,836
66581.232373,695,832
66581.232373,694,832
66581.232373,693,836
66581.232373,693,832
66581.232373,693,832
66581.232373,694,836
66581.232373,694,832
66581.232373,693,832
66581.24507599999,693,836
66581.24507599999,694,832
66581.24507599999,693,832
66581.24507599999,692,836
66581.24507599999,692,832
66581.24507599999,692,832
66581.24507599999,690,836
66581.24507599999,690,832
66581.24507599999,690,832
66581.24507599999,690,836
66581.24507599999,690,836
66581.24507599999,689,832
66581.24507599999,687,832
66581.24507599999,685,832
66581.24507599999,682,836
66581.24507599999,681,832
66581.257652,679,832
66581.257652,677,836
66581.257652,676,832
66581.257652,676,832
66581.257652,676,836
66581.257652,675,832
66581.257652,674,832
66581.257652,673,836
66581.257652,673,832
66581.257652,672,832
66581.257652,671,836
66581.257652,670,832
66581.257652,669,832
66581.257652,667,836
66581.257652,666,832
66581.257652,666,832
66581.273126,665,836
66581.273126,663,832
66581.273126,662,832
66581.273126,661,836
66581.273126,660,832
66581.273126,659,832
66581.273126,658,836
66581.273126,656,832
66581.273126,654,832
66581.273126,652,836
66581.273126,651,832
66581.273126,649,836
66581.273126,647,832
66581.273126,645,832
66581.273126,643,836
66581.273126,642,832
66581.285958,641,832
66581.285958,640,836
66581.285958,639,832
66581.285958,639,832
66581.285958,637,836
66581.285958,636,832
66581.285958,635,832
66581.285958,635,836
66581.285958,634,832
66581.285958,635,832
66581.285958,634,836
66581.285958,635,832
66581.285958,635,832
66581.285958,636,836
66581.285958,636,832
66581.285958,636,832
66581.298617,636,836
66581.298617,635,832
66581.298617,634,832
66581.298617,631,836
66581.298617,629,832
66581.298617,628,832
66581.298617,627,836
66581.298617,626,832
66581.298617,626,832
66581.298617,625,836
66581.298617,625,832
66581.298617,624,836
66581.298617,623,832
66581.298617,623,832
66581.298617,623,836
66581.298617,623,832
66581.31000299999,623,832
66581.31000299999,621,836
66581.31000299999,621,832
66581.31000299999,620,832
66581.31000299999,620,836
66581.31000299999,619,832
66581.31000299999,618,832
66581.31000299999,617,836
66581.31000299999,617,832
66581.31000299999,617,832
66581.31000299999,617,836
66581.31000299999,618,832
66581.31000299999,618,832
66581.31000299999,618,836
66581.31000299999,619,832
66581.31000299999,617,832
66581.326551,616,836
66581.326551,615,832
66581.326551,614,832
66581.326551,613,836
66581.326551,611,832
66581.326551,610,832
66581.326551,609,836
66581.326551,609,832
66581.326551,609,836
66581.326551,609,832
66581.326551,608,832
66581.326551,607,836
66581.326551,606,832
66581.326551,605,832
66581.326551,604,836
66581.326551,603,832
66581.339229,603,832
66581.339229,602,836
66581.339229,603,832
66581.339229,603,832
66581.339229,602,836
66581.339229,603,832
66581.339229,603,832
66581.339229,602,836
66581.339229,601,832
66581.339229,600,832
66581.339229,601,836
66581.339229,601,832
66581.339229,601,832
66581.339229,600,836
66581.339229,599,832
66581.339229,599,832
66581.35065600001,599,836
66581.35065600001,599,832
66581.35065600001,598,832
66581.35065600001,598,836
66581.35065600001,598,832
66581.35065600001,600,832
66581.35065600001,600,836
66581.35065600001,600,832
66581.35065600001,600,832
66581.35065600001,598,836
66581.35065600001,597,832
66581.35065600001,595,836
66581.35065600001,594,832
66581.35065600001,592,832
66581.35065600001,591,836
66581.35065600001,591,832
66581.363337,591,832
66581.363337,591,836
66581.363337,591,832
66581.363337,591,832
66581.363337,590,836
66581.363337,590,832
66581.363337,589,832
66581.363337,589,836
66581.363337,588,832
66581.363337,588,832
66581.363337,588,836
66581.363337,587,832
66581.363337,588,832
66581.363337,588,836
66581.363337,588,832
66581.363337,588,832
66581.37604,588,836
66581.37604,588,832
66581.37604,588,832
66581.37604,588,836
66581.37604,588,832
66581.37604,588,832
66581.37604,588,836
66581.37604,587,832
66581.37604,587,836
66581.37604,586,832
66581.37604,585,832
66581.37604,585,836
66581.37604,584,832
66581.37604,584,832
66581.37604,584,836
66581.37604,583,832
66581.39242,583,832
66581.39242,583,836
66581.39242,583,832
66581.39242,584,832
66581.39242,584,836
66581.39242,584,832
66581.39242,584,832
66581.39242,583,836
66581.39242,582,832
66581.39242,580,832
66581.39242,579,836
66581.39242,579,832
66581.39242,578,832
66581.39242,578,836
66581.39242,578,832
66581.39242,578,832
66581.405025,579,836
66581.405025,579,832
66581.405025,579,832
66581.405025,579,836
66581.405025,579,832
66581.405025,580,832
66581.405025,580,836
66581.405025,580,832
66581.405025,580,832
66581.405025,580,836
66581.405025,580,832
66581.405025,580,836
66581.405025,579,832
66581.405025,579,832
66581.405025,578,836
66581.405025,579,832
66581.416386,579,832
66581.416386,579,836
66581.416386,579,832
66581.416386,578,832
66581.416386,578,836
66581.416386,578,832
66581.416386,577,832
66581.416386,576,836
66581.416386,576,832
66581.416386,577,832
66581.416386,577,836
66581.416386,576,832
66581.416386,576,832
66581.416386,576,836
66581.416386,576,832
66581.416386,575,832
66581.429076,575,836
66581.429076,574,832
66581.429076,574,832
66581.429076,573,836
66581.429076,574,832
66581.429076,574,832
66581.429076,574,836
66581.429076,573,832
66581.429076,574,836
66581.429076,573,832
66581.429076,572,832
66581.429076,572,836
66581.429076,572,832
66581.429076,572,832
66581.429076,571,836
66581.429076,569,832
66581.445473,569,832
66581.445473,568,840
66581.445473,568,828
66581.445473,567,832
66581.445473,567,836
66581.445473,567,832
66581.445473,567,832
66581.445473,568,836
66581.445473,567,832
66581.445473,567,832
66581.445473,566,836
66581.445473,565,832
66581.445473,565,832
66581.445473,564,836
66581.445473,565,832
66581.445473,565,832
66581.458129,566,836
66581.458129,566,832
66581.458129,566,832
66581.458129,566,836
66581.458129,566,832
66581.458129,566,832
66581.458129,565,836
66581.458129,565,832
66581.458129,565,832
66581.458129,565,836
66581.458129,566,832
66581.458129,567,836
66581.458129,566,832
66581.458129,566,832
66581.458129,565,836
66581.458129,565,832
66581.469619,565,832
66581.469619,565,836
66581.469619,565,832
66581.469619,565,832
66581.469619,565,836
66581.469619,566,832
66581.469619,565,832
66581.469619,565,836
66581.469619,565,832
66581.469619,565,832
66581.469619,564,836
66581.469619,564,832
66581.469619,563,832
66581.469619,562,836
66581.469619,561,832
66581.469619,559,832
66581.482443,559,836
66581.482443,558,832
66581.482443,558,832
66581.482443,558,836
66581.482443,558,832
66581.482443,558,832
66581.482443,558,836
66581.482443,559,832
66581.482443,559,836
66581.482443,560,832
66581.482443,560,832
66581.482443,560,836
66581.482443,560,832
66581.482443,560,832
66581.482443,560,836
66581.482443,560,832
66581.49879,560,832
66581.49879,559,836
66581.49879,559,832
66581.49879,559,832
66581.49879,558,836
66581.49879,558,832
66581.49879,558,832
66581.49879,557,836
66581.49879,557,832
66581.49879,557,832
66581.49879,558,836
66581.49879,559,832
66581.49879,559,832
66581.49879,559,836
66581.49879,560,832
66581.49879,561,832
66581.511442,561,836
66581.511442,562,832
66581.511442,562,832
66581.511442,563,836
66581.511442,563,832
66581.511442,563,832
66581.511442,563,836
66581.511442,563,832
66581.511442,563,832
66581.511442,562,836
66581.511442,561,832
66581.511442,560,836
66581.511442,560,832
66581.511442,560,832
66581.511442,559,836
66581.511442,559,832
66581.522883,558,832
66581.522883,559,836
66581.522883,559,832
66581.522883,560,832
66581.522883,560,836
66581.522883,560,832
66581.522883,560,832
66581.522883,560,836
66581.522883,560,832
66581.522883,561,832
66581.522883,562,836
66581.522883,563,832
66581.522883,563,832
66581.522883,564,836
66581.522883,564,832
66581.522883,564,832
66581.539249,565,836
66581.539249,565,832
66581.539249,564,832
66581.539249,564,836
66581.539249,563,832
66581.539249,563,832
66581.539249,562,836
66581.539249,563,832
66581.539249,563,836
66581.539249,563,832
66581.539249,563,832
66581.539249,563,836
66581.539249,564,832
66581.539249,565,832
66581.539249,566,836
66581.539249,566,832
66581.55195000001,566,832
66581.55195000001,566,836
66581.55195000001,565,832
66581.55195000001,564,832
66581.55195000001,563,836
66581.55195000001,562,832
66581.55195000001,561,832
66581.55195000001,560,836
66581.55195000001,559,832
66581.55195000001,559,832
66581.55195000001,559,836
66581.55195000001,559,832
66581.55195000001,560,832
66581.55195000001,560,836
66581.55195000001,560,832
66581.55195000001,562,832
66581.564683,562,836
66581.564683,563,832
66581.564683,565,832
66581.564683,566,836
66581.564683,566,832
66581.564683,566,832
66581.564683,565,836
66581.564683,563,832
66581.564683,560,832
66581.564683,557,836
66581.564683,554,832
66581.564683,551,836
66581.564683,548,832
66581.564683,544,832
66581.564683,541,836
66581.564683,537,832
66581.578197,533,832
66581.578197,529,836
66581.578197,526,832
66581.578197,523,832
66581.578197,520,836
66581.578197,517,832
66581.578197,514,832
66581.578197,511,836
66581.578197,508,832
66581.578197,504,832
66581.578197,500,836
66581.578197,497,832
66581.578197,494,832
66581.578197,491,836
66581.578197,487,832
66581.578197,483,832
66581.593223,480,836
66581.593223,476,832
66581.593223,474,832
66581.593223,471,836
66581.593223,468,832
66581.593223,464,832
66581.593223,460,836
66581.593223,455,832
66581.593223,451,832
66581.593223,446,836
66581.593223,441,832
66581.593223,436,836
66581.593223,432,832
66581.593223,427,836
66581.593223,422,832
66581.593223,417,832
66581.606096,412,832
66581.606096,406,836
66581.606096,401,832
66581.606096,396,832
66581.606096,391,836
66581.606096,386,832
66581.606096,382,832
66581.606096,377,836
66581.606096,372,832
66581.606096,368,832
66581.606096,363,836
66581.606096,359,832
66581.606096,355,832
66581.606096,351,836
66581.606096,347,832
66581.606096,344,832
66581.616987,341,836
66581.616987,337,832
66581.616987,334,832
66581.616987,330,836
66581.616987,328,832
66581.616987,324,832
66581.616987,320,836
66581.616987,316,832
66581.616987,314,832
66581.616987,311,836
66581.616987,308,832
66581.616987,305,836
66581.616987,303,832
66581.616987,301,832
66581.616987,299,836
66581.616987,296,832
66581.634632,294,832
66581.634632,292,836
66581.634632,291,832
66581.634632,289,832
66581.634632,287,836
66581.634632,285,832
66581.634632,283,832
66581.634632,280,836
66581.634632,279,832
66581.634632,277,832
66581.634632,276,836
66581.634632,275,832
66581.634632,274,832
66581.634632,273,836
66581.634632,271,832
66581.634632,269,832
66581.646044,269,836
66581.646044,267,832
66581.646044,266,832
66581.646044,264,836
66581.646044,264,832
66581.646044,262,832
66581.646044,260,836
66581.646044,259,832
66581.646044,258,832
66581.646044,257,836
66581.646044,256,832
66581.646044,256,836
66581.646044,256,832
66581.646044,255,832
66581.646044,255,836
66581.646044,254,832
66581.65867,253,832
66581.65867,253,836
66581.65867,252,832
66581.65867,250,832
66581.65867,250,836
66581.65867,250,832
66581.65867,250,832
66581.65867,250,836
66581.65867,250,832
66581.65867,251,832
66581.65867,252,836
66581.65867,252,832
66581.65867,251,832
66581.65867,250,836
66581.65867,248,832
66581.65867,247,832
66581.670115,245,836
66581.670115,244,832
66581.670115,243,832
66581.670115,242,836
66581.670115,242,832
66581.670115,241,832
66581.670115,241,836
66581.670115,242,832
66581.670115,243,832
66581.670115,244,836
66581.670115,245,832
66581.670115,245,836
66581.670115,246,832
66581.670115,247,832
66581.670115,248,836
66581.670115,248,832
66581.688162,248,832
66581.688162,249,836
66581.688162,249,832
66581.688162,250,832
66581.688162,251,836
66581.688162,253,832
66581.688162,253,832
66581.688162,255,836
66581.688162,256,832
66581.688162,258,832
66581.688162,259,836
66581.688162,260,832
66581.688162,261,832
66581.688162,262,836
66581.688162,263,832
66581.688162,264,832
66581.699254,266,836
66581.699254,268,832
66581.699254,270,832
66581.699254,273,836
66581.699254,275,832
66581.699254,277,832
66581.699254,278,836
66581.699254,281,832
66581.699254,282,832
66581.699254,284,836
66581.699254,285,832
66581.699254,286,836
66581.699254,287,832
66581.699254,288,832
66581.699254,288,836
66581.699254,288,832
66581.711628,289,832
66581.711628,290,836
66581.711628,291,832
66581.711628,291,832
66581.711628,292,836
66581.711628,292,832
66581.711628,293,832
66581.711628,293,836
66581.711628,294,832
66581.711628,294,832
66581.711628,295,836
66581.711628,296,832
66581.711628,296,832
66581.711628,297,836
66581.711628,298,832
66581.711628,299,832
66581.724313,300,836
66581.724313,301,832
66581.724313,302,832
66581.724313,303,836
66581.724313,305,832
66581.724313,306,832
66581.724313,307,836
66581.724313,309,832
66581.724313,311,832
66581.724313,312,836
66581.724313,313,832
66581.724313,314,836
66581.724313,315,832
66581.724313,315,832
66581.724313,317,836
66581.724313,317,832
66581.740751,317,832
66581.740751,318,836
66581.740751,319,832
66581.740751,319,832
66581.740751,320,836
66581.740751,322,832
66581.740751,322,832
66581.740751,322,836
66581.740751,323,832
66581.740751,323,832
66581.740751,324,836
66581.740751,324,832
66581.740751,325,832
66581.740751,327,836
66581.740751,327,832
66581.740751,329,832
66581.752153,331,836
66581.752153,332,832
66581.752153,334,832
66581.752153,335,836
66581.752153,336,832
66581.752153,337,832
66581.752153,338,836
66581.752153,339,832
66581.752153,340,832
66581.752153,340,836
66581.752153,342,832
66581.752153,343,836
66581.752153,344,832
66581.752153,344,832
66581.752153,344,836
66581.752153,344,832
66581.764842,345,832
66581.764842,345,836
66581.764842,345,832
66581.764842,346,832
66581.764842,346,836
66581.764842,348,832
66581.764842,349,832
66581.764842,350,836
66581.764842,351,832
66581.764842,352,832
66581.764842,353,836
66581.764842,354,832
66581.764842,354,832
66581.764842,354,836
66581.764842,355,832
66581.764842,357,832
66581.77755,358,836
66581.77755,358,832
66581.77755,359,832
66581.77755,360,836
66581.77755,361,832
66581.77755,361,832
66581.77755,362,836
66581.77755,363,832
66581.77755,363,836
66581.77755,365,832
66581.77755,365,832
66581.77755,366,836
66581.77755,366,832
66581.77755,368,832
66581.77755,369,836
66581.77755,370,832
66581.79402,372,832
66581.79402,373,836
66581.79402,374,832
66581.79402,375,832
66581.79402,376,840
66581.79402,377,828
66581.79402,376,832
66581.79402,377,836
66581.79402,377,832
66581.79402,378,832
66581.79402,379,836
66581.79402,379,832
66581.79402,380,832
66581.79402,381,836
66581.79402,381,832
66581.79402,382,832
66581.806663,382,836
66581.806663,383,832
66581.806663,384,832
66581.806663,386,836
66581.806663,387,832
66581.806663,389,832
66581.806663,390,836
66581.806663,392,832
66581.806663,393,832
66581.806663,395,836
66581.806663,395,832
66581.806663,397,836
66581.806663,397,832
66581.806663,398,832
66581.806663,399,836
66581.806663,400,832
66581.817789,401,832
66581.817789,403,836
66581.817789,403,832
66581.817789,404,832
66581.817789,406,836
66581.817789,407,832
66581.817789,408,832
66581.817789,410,836
66581.817789,411,832
66581.817789,412,832
66581.817789,413,836
66581.817789,414,832
66581.817789,414,832
66581.817789,414,836
66581.817789,415,832
66581.817789,415,832
66581.83034700001,416,836
66581.83034700001,416,832
66581.83034700001,417,832
66581.83034700001,418,836
66581.83034700001,420,832
66581.83034700001,422,832
66581.83034700001,423,836
66581.83034700001,424,832
66581.83034700001,425,832
66581.83034700001,426,836
66581.83034700001,426,832
66581.83034700001,426,836
66581.83034700001,426,832
66581.83034700001,426,832
66581.83034700001,426,836
66581.83034700001,426,832
66581.842942,426,832
66581.842942,426,836
66581.842942,427,832
66581.842942,428,832
66581.842942,428,836
66581.842942,429,832
66581.842942,429,832
66581.842942,431,836
66581.842942,432,832
66581.842942,432,832
66581.842942,433,836
66581.842942,433,832
66581.842942,434,832
66581.842942,434,836
66581.842942,435,832
66581.842942,436,832
66581.85953100001,437,836
66581.85953100001,438,832
66581.85953100001,439,832
66581.85953100001,439,836
66581.85953100001,440,832
66581.85953100001,442,832
66581.85953100001,443,836
66581.85953100001,444,832
66581.85953100001,445,836
66581.85953100001,445,832
66581.85953100001,445,832
66581.85953100001,446,836
66581.85953100001,446,832
66581.85953100001,446,832
66581.85953100001,447,836
66581.85953100001,448,832
66581.87093,449,832
66581.87093,450,836
66581.87093,451,832
66581.87093,452,832
66581.87093,452,836
66581.87093,454,832
66581.87093,454,832
66581.87093,455,836
66581.87093,455,832
66581.87093,456,832
66581.87093,457,836
66581.87093,458,832
66581.87093,459,832
66581.87093,460,836
66581.87093,461,832
66581.87093,462,832
66581.883564,463,836
66581.883564,464,832
66581.883564,465,832
66581.883564,466,836
66581.883564,467,832
66581.883564,469,832
66581.883564,470,836
66581.883564,470,832
66581.883564,471,836
66581.883564,472,832
66581.883564,472,832
66581.883564,472,836
66581.883564,472,832
66581.883564,473,832
66581.883564,473,836
66581.883564,474,832
66581.896169,475,832
66581.896169,475,836
66581.896169,475,832
66581.896169,475,832
66581.896169,475,836
66581.896169,475,832
66581.896169,475,832
66581.896169,474,836
66581.896169,474,832
66581.896169,473,832
66581.896169,473,836
66581.896169,473,832
66581.896169,473,832
66581.896169,473,836
66581.896169,473,832
66581.896169,473,832
66581.912383,474,836
66581.912383,475,832
66581.912383,475,832
66581.912383,476,836
66581.912383,477,832
66581.912383,477,832
66581.912383,476,836
66581.912383,476,832
66581.912383,476,836
66581.912383,475,832
66581.912383,475,832
66581.912383,475,836
66581.912383,475,832
66581.912383,475,832
66581.912383,475,836
66581.912383,475,832
66581.924719,476,832
66581.924719,477,836
66581.924719,477,832
66581.924719,478,832
66581.924719,479,836
66581.924719,480,832
66581.924719,480,832
66581.924719,480,836
66581.924719,481,832
66581.924719,482,832
66581.924719,483,836
66581.924719,484,832
66581.924719,485,832
66581.924719,485,836
66581.924719,485,832
66581.924719,486,832
66581.93750100001,487,836
66581.93750100001,488,832
66581.93750100001,489,832
66581.93750100001,489,836
66581.93750100001,490,832
66581.93750100001,490,832
66581.93750100001,490,836
66581.93750100001,490,832
66581.93750100001,490,832
66581.93750100001,490,836
66581.93750100001,489,832
66581.93750100001,490,836
66581.93750100001,490,832
66581.93750100001,491,832
66581.93750100001,492,836
66581.93750100001,492,832
66581.948931,493,836
66581.948931,493,832
66581.948931,493,832
66581.948931,491,832
66581.948931,489,836
66581.948931,486,832
66581.948931,482,832
66581.948931,479,836
66581.948931,476,832
66581.948931,472,832
66581.948931,468,836
66581.948931,465,832
66581.948931,462,832
66581.948931,459,836
66581.948931,456,832
66581.948931,454,832
66581.965411,452,836
66581.965411,449,832
66581.965411,447,832
66581.965411,445,836
66581.965411,442,832
66581.965411,441,832
66581.965411,440,836
66581.965411,438,832
66581.965411,435,832
66581.965411,432,836
66581.965411,430,832
66581.965411,428,836
66581.965411,425,832
66581.965411,422,832
66581.965411,419,836
66581.965411,416,832
66581.978114,414,832
66581.978114,412,836
66581.978114,409,832
66581.978114,407,832
66581.978114,406,836
66581.978114,404,832
66581.978114,402,832
66581.978114,401,836
66581.978114,399,832
66581.978114,395,832
66581.978114,393,836
66581.978114,390,832
66581.978114,388,832
66581.978114,385,836
66581.978114,382,832
66581.978114,380,832
66581.990792,378,836
66581.990792,376,832
66581.990792,374,832
66581.990792,372,836
66581.990792,369,832
66581.990792,367,832
66581.990792,366,836
66581.990792,365,832
66581.990792,364,832
66581.990792,362,836
66581.990792,359,832
66581.990792,358,836
66581.990792,357,832
66581.990792,356,832
66581.990792,355,836
66581.990792,355,832
66582.006234,354,832
66582.006234,353,836
66582.006234,351,832
66582.006234,348,832
66582.006234,346,836
66582.006234,343,832
66582.006234,340,832
66582.006234,337,836
66582.006234,334,832
66582.006234,331,832
66582.006234,328,836
66582.006234,325,832
66582.006234,322,832
66582.006234,319,836
66582.006234,317,832
66582.006234,315,832
66582.019433,313,836
66582.019433,311,832
66582.019433,310,832
66582.019433,307,836
66582.019433,304,832
66582.019433,303,832
66582.019433,302,836
66582.019433,299,832
66582.019433,297,836
66582.019433,295,832
66582.019433,291,832
66582.019433,290,836
66582.019433,287,832
66582.019433,286,832
66582.019433,283,836
66582.019433,281,832
66582.031989,279,832
66582.031989,277,836
66582.031989,275,832
66582.031989,273,832
66582.031989,271,836
66582.031989,269,832
66582.031989,268,832
66582.031989,267,836
66582.031989,265,832
66582.031989,264,832
66582.031989,262,836
66582.031989,260,832
66582.031989,259,832
66582.031989,258,836
66582.031989,258,832
66582.031989,257,832
66582.04311,256,836
66582.04311,255,832
66582.04311,254,832
66582.04311,253,836
66582.04311,252,832
66582.04311,251,832
66582.04311,250,836
66582.04311,249,832
66582.04311,248,832
66582.04311,247,836
66582.04311,247,832
66582.04311,246,836
66582.04311,245,832
66582.04311,245,832
66582.04311,245,836
66582.04311,245,832
66582.060574,246,832
66582.060574,245,836
66582.060574,244,832
66582.060574,244,832
66582.060574,243,836
66582.060574,244,832
66582.060574,244,832
66582.060574,244,836
66582.060574,244,832
66582.060574,245,832
66582.060574,245,836
66582.060574,246,832
66582.060574,247,832
66582.060574,247,836
66582.060574,248,832
66582.060574,248,832
66582.07200500001,248,836
66582.07200500001,249,832
66582.07200500001,250,832
66582.07200500001,250,836
66582.07200500001,252,832
66582.07200500001,253,832
66582.07200500001,254,836
66582.07200500001,255,832
66582.07200500001,257,836
66582.07200500001,258,832
66582.07200500001,260,832
66582.07200500001,261,836
66582.07200500001,262,832
66582.07200500001,263,832
66582.07200500001,264,836
66582.07200500001,264,832
66582.084603,265,832
66582.084603,266,836
66582.084603,266,832
66582.084603,267,832
66582.084603,268,836
66582.084603,269,832
66582.084603,270,832
66582.084603,270,836
66582.084603,270,832
66582.084603,271,832
66582.084603,272,836
66582.084603,273,832
66582.084603,275,832
66582.084603,276,836
66582.084603,277,832
66582.084603,278,832
66582.101004,278,836
66582.101004,279,832
66582.101004,279,832
66582.101004,279,836
66582.101004,280,832
66582.101004,280,832
66582.101004,281,836
66582.101004,283,832
66582.101004,283,832
66582.101004,284,836
66582.101004,285,832
66582.101004,286,836
66582.101004,287,832
66582.101004,289,832
66582.101004,290,836
66582.101004,292,832
66582.113446,292,832
66582.113446,293,836
66582.113446,294,832
66582.113446,295,832
66582.113446,295,836
66582.113446,294,832
66582.113446,294,832
66582.113446,293,836
66582.113446,294,832
66582.113446,293,832
66582.113446,293,836
66582.113446,294,832
66582.113446,295,832
66582.113446,295,836
66582.113446,295,832
66582.113446,296,832
66582.125113,297,836
66582.125113,296,832
66582.125113,297,832
66582.125113,297,836
66582.125113,298,832
66582.125113,300,832
66582.125113,300,836
66582.125113,300,832
66582.125113,300,832
66582.125113,300,836
66582.125113,301,832
66582.125113,302,836
66582.125113,302,832
66582.125113,303,832
66582.125113,304,836
66582.125113,306,832
66582.137875,307,832
66582.137875,308,836
66582.137875,310,832
66582.137875,311,832
66582.137875,311,836
66582.137875,311,832
66582.137875,311,832
66582.137875,311,840
66582.137875,310,828
66582.137875,310,832
66582.137875,309,836
66582.137875,309,832
66582.137875,308,832
66582.137875,308,836
66582.137875,309,832
66582.137875,310,832
66582.154544,311,836
66582.154544,312,832
66582.154544,313,832
66582.154544,314,836
66582.154544,315,832
66582.154544,317,832
66582.154544,317,836
66582.154544,318,832
66582.154544,318,836
66582.154544,318,832
66582.154544,318,832
66582.154544,318,836
66582.154544,318,832
66582.154544,319,832
66582.154544,319,836
66582.154544,319,832
66582.166032,320,832
66582.166032,320,836
66582.166032,320,832
66582.166032,321,832
66582.166032,322,836
66582.166032,323,832
66582.166032,324,832
66582.166032,325,836
66582.166032,326,832
66582.166032,327,832
66582.166032,327,836
66582.166032,329,832
66582.166032,330,832
66582.166032,331,836
66582.166032,331,832
66582.166032,331,832
66582.17858200001,332,836
66582.17858200001,333,832
66582.17858200001,334,832
66582.17858200001,335,836
66582.17858200001,336,832
66582.17858200001,336,832
66582.17858200001,336,836
66582.17858200001,337,832
66582.17858200001,337,832
66582.17858200001,336,836
66582.17858200001,336,832
66582.17858200001,336,836
66582.17858200001,336,832
66582.17858200001,337,832
66582.17858200001,337,836
66582.17858200001,338,832
66582.194942,338,832
66582.194942,338,836
66582.194942,339,832
66582.194942,340,832
66582.194942,341,836
66582.194942,340,832
66582.194942,341,832
66582.194942,341,836
66582.194942,343,832
66582.194942,343,832
66582.194942,344,836
66582.194942,345,832
66582.194942,345,832
66582.194942,346,836
66582.194942,347,832
66582.194942,348,832
66582.207717,348,836
66582.207717,349,832
66582.207717,349,832
66582.207717,349,836
66582.207717,350,832
66582.207717,350,832
66582.207717,350,836
66582.207717,350,832
66582.207717,350,832
66582.207717,350,836
66582.207717,350,832
66582.207717,350,836
66582.207717,350,832
66582.207717,351,832
66582.207717,351,836
66582.207717,352,832
66582.219232,352,832
66582.219232,353,836
66582.219232,353,832
66582.219232,354,832
66582.219232,355,836
66582.219232,356,832
66582.219232,357,832
66582.219232,358,836
66582.219232,359,832
66582.219232,359,832
66582.219232,360,836
66582.219232,361,832
66582.219232,361,832
66582.219232,361,836
66582.219232,362,832
66582.219232,362,832
66582.231915,362,836
66582.231915,363,832
66582.231915,364,832
66582.231915,365,836
66582.231915,365,832
66582.231915,365,832
66582.231915,364,836
66582.231915,364,832
66582.231915,364,836
66582.231915,364,832
66582.231915,364,832
66582.231915,363,836
66582.231915,364,832
66582.231915,364,832
66582.231915,365,836
66582.231915,366,832
66582.24445,367,832
66582.24445,367,836
66582.24445,367,832
66582.24445,367,832
66582.24445,368,836
66582.24445,368,832
66582.24445,369,832
66582.24445,369,836
66582.24445,368,832
66582.24445,369,832
66582.24445,369,836
66582.24445,370,832
66582.24445,370,832
66582.24445,371,836
66582.24445,372,832
66582.24445,373,832
66582.261115,373,836
66582.261115,374,832
66582.261115,374,832
66582.261115,374,836
66582.261115,374,832
66582.261115,374,832
66582.261115,374,836
66582.261115,374,832
66582.261115,374,836
66582.261115,373,832
66582.261115,373,832
66582.261115,374,836
66582.261115,374,832
66582.261115,374,832
66582.261115,375,836
66582.261115,375,832
66582.272663,376,832
66582.272663,376,836
66582.272663,377,832
66582.272663,377,832
66582.272663,378,836
66582.272663,379,832
66582.272663,380,832
66582.272663,380,836
66582.272663,381,832
66582.272663,381,832
66582.272663,382,836
66582.272663,383,832
66582.272663,383,832
66582.272663,383,836
66582.272663,384,832
66582.272663,384,832
66582.285378,386,836
66582.285378,387,832
66582.285378,388,832
66582.285378,389,836
66582.285378,390,832
66582.285378,391,832
66582.285378,392,836
66582.285378,393,832
66582.285378,393,832
66582.285378,393,836
66582.285378,393,832
66582.285378,393,836
66582.285378,394,832
66582.285378,395,832
66582.285378,394,836
66582.285378,394,832
66582.296795,394,832
66582.296795,393,836
66582.296795,393,832
66582.296795,393,844
66582.296795,394,824
66582.296795,394,832
66582.296795,395,832
66582.296795,395,836
66582.296795,395,832
66582.296795,396,832
66582.296795,396,836
66582.296795,396,832
66582.296795,397,832
66582.296795,398,836
66582.296795,398,832
66582.296795,399,832
66582.309416,399,836
66582.309416,400,832
66582.309416,400,832
66582.309416,400,836
66582.309416,401,832
66582.309416,401,832
66582.309416,400,836
66582.309416,401,832
66582.309416,401,836
66582.309416,401,832
66582.309416,401,832
66582.309416,402,836
66582.309416,401,832
66582.309416,400,832
66582.309416,400,836
66582.309416,400,832
66582.32675,404,832
66582.32675,407,836
66582.32675,408,832
66582.32675,406,832
66582.32675,405,836
66582.32675,407,832
66582.32675,408,832
66582.32675,409,836
66582.32675,410,832
66582.32675,410,832
66582.32675,409,836
66582.32675,408,832
66582.32675,410,832
66582.32675,411,836
66582.32675,416,832
66582.32675,421,832
66582.339044,424,836
66582.339044,426,832
66582.339044,428,832
66582.339044,429,836
66582.339044,431,832
66582.339044,433,832
66582.339044,436,836
66582.339044,437,832
66582.339044,437,836
66582.339044,441,832
66582.339044,447,832
66582.339044,452,836
66582.339044,455,832
66582.339044,458,832
66582.339044,461,836
66582.339044,467,832
66582.350366,471,832
66582.350366,476,836
66582.350366,482,832
66582.350366,488,832
66582.350366,497,836
66582.350366,506,832
66582.350366,512,832
66582.350366,516,836
66582.350366,520,832
66582.350366,525,832
66582.350366,531,836
66582.350366,539,832
66582.350366,547,832
66582.350366,556,836
66582.350366,564,832
66582.350366,571,832
66582.36298600001,581,836
66582.36298600001,589,832
66582.36298600001,599,832
66582.36298600001,607,836
66582.36298600001,616,832
66582.36298600001,623,832
66582.36298600001,630,836
66582.36298600001,636,832
66582.36298600001,644,832
66582.36298600001,653,836
66582.36298600001,664,832
66582.36298600001,674,836
66582.36298600001,684,832
66582.36298600001,692,832
66582.36298600001,702,836
66582.36298600001,712,832
66582.37935,722,832
66582.37935,731,836
66582.37935,738,832
66582.37935,747,832
66582.37935,756,836
66582.37935,765,832
66582.37935,778,832
66582.37935,791,836
66582.37935,802,832
66582.37935,808,832
66582.37935,816,836
66582.37935,823,832
66582.37935,831,832
66582.37935,841,836
66582.37935,850,832
66582.37935,862,832
66582.391906,872,836
66582.391906,879,832
66582.391906,886,832
66582.391906,892,836
66582.391906,901,832
66582.391906,910,832
66582.391906,921,836
66582.391906,930,832
66582.391906,938,836
66582.391906,944,832
66582.391906,952,832
66582.391906,959,836
66582.391906,964,832
66582.391906,969,832
66582.391906,975,836
66582.391906,983,832
66582.40461900001,989,832
66582.40461900001,994,836
66582.40461900001,1001,832
66582.40461900001,1007,832
66582.40461900001,1011,836
66582.40461900001,1014,832
66582.40461900001,1017,832
66582.40461900001,1020,836
66582.40461900001,1022,832
66582.40461900001,1023,832
66582.40461900001,1023,836
66582.40461900001,1023,832
66582.40461900001,1023,832
66582.40461900001,1023,836
66582.40461900001,1023,832
66582.416042,1023,832
66582.416042,1023,836
66582.416042,1023,832
66582.416042,1023,832
66582.416042,1023,836
66582.416042,1023,832
66582.416042,1023,832
66582.416042,1023,836
66582.416042,1023,832
66582.416042,1023,836
66582.416042,1023,832
66582.416042,1023,832
66582.416042,1023,836
66582.416042,1023,832
66582.428682,1023,832
66582.428682,1023,836
66582.428682,1023,832
66582.428682,1023,832
66582.428682,1022,836
66582.428682,1023,832
66582.428682,1023,832
66582.428682,1023,836
66582.428682,1023,832
66582.428682,1023,832
66582.428682,1023,836
66582.428682,1023,832
66582.428682,1023,832
66582.428682,1023,836
66582.441245,1023,832
66582.441245,1023,832
66582.441245,1023,836
66582.441245,1023,832
66582.441245,1023,832
66582.441245,1023,836
66582.441245,1023,832
66582.441245,1023,832
66582.441245,1023,836
66582.441245,1023,832
66582.441245,1023,832
66582.441245,1022,836
66582.441245,1023,832
66582.441245,1023,836
66582.452582,1023,832
66582.452582,1023,832
66582.452582,1023,836
66582.452582,1023,832
66582.452582,1023,832
66582.452582,1023,836
66582.452582,1023,832
66582.452582,1023,832
66582.452582,1023,836
66582.452582,1023,832
66582.452582,1023,832
66582.452582,1022,836
66582.452582,1022,832
66582.452582,1022,832
66582.452582,1021,836
66582.46520400001,1021,832
66582.46520400001,1020,832
66582.46520400001,1019,836
66582.46520400001,1017,832
66582.46520400001,1017,832
66582.46520400001,1015,836
66582.46520400001,1014,832
66582.46520400001,1011,832
66582.46520400001,1009,836
66582.46520400001,1007,832
66582.46520400001,1003,832
66582.46520400001,1000,836
66582.46520400001,996,832
66582.46520400001,993,832
66582.47787,989,836
66582.47787,985,832
66582.47787,982,832
66582.47787,977,836
66582.47787,971,832
66582.47787,966,836
66582.47787,961,832
66582.47787,956,832
66582.47787,951,836
66582.47787,946,832
66582.47787,941,832
66582.47787,937,836
66582.47787,932,832
66582.47787,927,832
66582.47787,922,836
66582.47787,917,832
66582.489225,912,832
66582.489225,907,836
66582.489225,901,832
66582.489225,894,832
66582.489225,888,848
66582.489225,881,820
66582.489225,875,832
66582.489225,868,836
66582.489225,862,832
66582.489225,856,832
66582.489225,850,836
66582.489225,843,832
66582.489225,838,832
66582.489225,832,836
66582.489225,826,832
66582.489225,820,832
66582.501942,813,836
66582.501942,808,832
66582.501942,802,836
66582.501942,796,832
66582.501942,790,832
66582.501942,785,836
66582.501942,780,832
66582.501942,775,832
66582.501942,770,836
66582.501942,764,832
66582.501942,760,832
66582.501942,755,836
66582.501942,751,832
66582.501942,746,832
66582.501942,742,836
66582.501942,738,832
66582.518366,734,832
66582.518366,730,836
66582.518366,727,832
66582.518366,723,832
66582.518366,719,836
66582.518366,715,832
66582.518366,711,832
66582.518366,707,836
66582.518366,703,832
66582.518366,700,832
66582.518366,696,836
66582.518366,693,832
66582.518366,689,832
66582.518366,686,836
66582.518366,683,832
66582.518366,680,832
66582.530952,678,836
66582.530952,675,832
66582.530952,672,836
66582.530952,669,832
66582.530952,667,832
66582.530952,665,836
66582.530952,663,832
66582.530952,660,832
66582.530952,657,836
66582.530952,655,832
66582.530952,652,832
66582.530952,649,836
66582.530952,647,832
66582.530952,644,832
66582.530952,641,836
66582.530952,638,832
66582.54353,636,832
66582.54353,633,836
66582.54353,631,832
66582.54353,628,832
66582.54353,626,836
66582.54353,624,832
66582.54353,622,832
66582.54353,620,836
66582.54353,617,832
66582.54353,616,832
66582.54353,613,836
66582.54353,610,832
66582.54353,608,832
66582.54353,605,836
66582.54353,602,832
66582.54353,599,832
66582.55601,597,836
66582.55601,595,832
66582.55601,592,832
66582.55601,591,836
66582.55601,589,832
66582.55601,587,836
66582.55601,584,832
66582.55601,582,832
66582.55601,581,836
66582.55601,579,832
66582.55601,577,832
66582.55601,576,836
66582.55601,575,832
66582.55601,574,832
66582.55601,572,836
66582.55601,570,832
66582.567318,568,832
66582.567318,566,836
66582.567318,564,832
66582.567318,562,832
66582.567318,561,836
66582.567318,560,832
66582.567318,558,832
66582.567318,557,836
66582.567318,555,832
66582.567318,554,832
66582.567318,552,836
66582.567318,551,832
66582.567318,550,832
66582.567318,549,836
66582.567318,549,832
66582.567318,548,832
66582.583733,548,836
66582.583733,548,832
66582.583733,547,836
66582.583733,547,832
66582.583733,546,832
66582.583733,545,836
66582.583733,544,832
66582.583733,542,832
66582.583733,540,836
66582.583733,538,832
66582.583733,537,832
66582.583733,537,836
66582.583733,535,832
66582.583733,534,832
66582.583733,533,836
66582.583733,532,832
66582.596412,531,832
66582.596412,530,836
66582.596412,529,832
66582.596412,529,832
66582.596412,529,836
66582.596412,529,832
66582.596412,529,832
66582.596412,528,836
66582.596412,527,832
66582.596412,526,832
66582.596412,526,836
66582.596412,525,832
66582.596412,524,832
66582.596412,523,836
66582.596412,522,832
66582.596412,522,832
66582.609119,521,836
66582.609119,520,832
66582.609119,520,836
66582.609119,519,832
66582.609119,519,832
66582.609119,518,836
66582.609119,517,832
66582.609119,517,832
66582.609119,517,836
66582.609119,517,832
66582.609119,517,832
66582.609119,517,836
66582.609119,516,832
66582.609119,515,832
66582.609119,515,836
66582.609119,515,832
66582.625635,515,832
66582.625635,515,836
66582.625635,515,832
66582.625635,515,832
66582.625635,515,836
66582.625635,514,832
66582.625635,513,832
66582.625635,512,836
66582.625635,510,832
66582.625635,509,832
66582.625635,508,836
66582.625635,507,832
66582.625635,506,832
66582.625635,506,836
66582.625635,506,832
66582.625635,506,832
66582.638506,506,836
66582.638506,506,832
66582.638506,506,836
66582.638506,505,832
66582.638506,506,832
66582.638506,506,836
66582.638506,506,832
66582.638506,506,832
66582.638506,506,836
66582.638506,506,832
66582.638506,505,832
66582.638506,504,836
66582.638506,503,832
66582.638506,502,832
66582.638506,501,836
66582.638506,501,832
66582.650468,501,844
66582.650468,501,824
66582.650468,501,832
66582.650468,501,832
66582.650468,501,836
66582.650468,501,832
66582.650468,501,832
66582.650468,500,836
66582.650468,500,832
66582.650468,500,832
66582.650468,500,836
66582.650468,500,832
66582.650468,500,832
66582.650468,500,836
66582.650468,499,832
66582.650468,498,832
66582.66170499999,497,836
66582.66170499999,497,832
66582.66170499999,497,832
66582.66170499999,497,836
66582.66170499999,496,832
66582.66170499999,496,836
66582.66170499999,495,832
66582.66170499999,495,832
66582.66170499999,496,836
66582.66170499999,496,832
66582.66170499999,496,832
66582.66170499999,495,836
66582.66170499999,494,832
66582.66170499999,494,832
66582.66170499999,494,836
66582.66170499999,494,832
66582.678099,494,832
66582.678099,495,836
66582.678099,495,832
66582.678099,495,832
66582.678099,496,836
66582.678099,497,832
66582.678099,497,832
66582.678099,497,836
66582.678099,497,832
66582.678099,496,832
66582.678099,495,836
66582.678099,495,832
66582.678099,494,832
66582.678099,493,836
66582.678099,492,832
66582.678099,491,832
66582.690848,490,836
66582.690848,489,832
66582.690848,489,836
66582.690848,489,832
66582.690848,489,832
66582.690848,489,836
66582.690848,488,832
66582.690848,488,832
66582.690848,488,836
66582.690848,489,832
66582.690848,490,832
66582.690848,491,836
66582.690848,492,832
66582.690848,493,832
66582.690848,493,836
66582.690848,493,832
66582.703456,493,832
66582.703456,494,836
66582.703456,494,832
66582.703456,495,832
66582.703456,496,836
66582.703456,496,832
66582.703456,496,832
66582.703456,495,836
66582.703456,496,832
66582.703456,496,832
66582.703456,496,836
66582.703456,496,832
66582.703456,496,832
66582.703456,496,836
66582.703456,496,832
66582.703456,496,832
66582.720271,497,836
66582.720271,497,832
66582.720271,497,836
66582.720271,498,832
66582.720271,498,832
66582.720271,499,836
66582.720271,499,832
66582.720271,500,832
66582.720271,501,836
66582.720271,501,832
66582.720271,502,832
66582.720271,502,836
66582.720271,503,832
66582.720271,502,832
66582.720271,501,836
66582.720271,500,832
66582.73153,497,832
66582.73153,495,836
66582.73153,491,832
66582.73153,488,832
66582.73153,486,836
66582.73153,484,832
66582.73153,484,832
66582.73153,482,836
66582.73153,481,832
66582.73153,480,832
66582.73153,479,836
66582.73153,477,832
66582.73153,476,832
66582.73153,475,836
66582.73153,474,832
66582.73153,473,832
66582.744253,472,836
66582.744253,471,832
66582.744253,470,832
66582.744253,470,836
66582.744253,469,832
66582.744253,469,836
66582.744253,467,832
66582.744253,467,832
66582.744253,466,836
66582.744253,464,832
66582.744253,464,832
66582.744253,463,836
66582.744253,462,832
66582.744253,461,832
66582.744253,461,836
66582.744253,460,832
66582.755899,461,832
66582.755899,461,836
66582.755899,461,832
66582.755899,460,832
66582.755899,461,836
66582.755899,460,832
66582.755899,459,832
66582.755899,459,836
66582.755899,458,832
66582.755899,458,832
66582.755899,457,836
66582.755899,457,832
66582.755899,456,832
66582.755899,456,836
66582.755899,456,832
66582.755899,455,832
66582.772429,455,836
66582.772429,454,832
66582.772429,454,832
66582.772429,453,836
66582.772429,453,832
66582.772429,453,836
66582.772429,453,832
66582.772429,453,832
66582.772429,453,836
66582.772429,453,832
66582.772429,453,832
66582.772429,453,836
66582.772429,454,832
66582.772429,454,832
66582.772429,454,836
66582.772429,454,832
66582.785152,454,832
66582.785152,454,836
66582.785152,454,832
66582.785152,455,832
66582.785152,455,836
66582.785152,456,832
66582.785152,455,832
66582.785152,455,836
66582.785152,456,832
66582.785152,456,832
66582.785152,458,836
66582.785152,459,832
66582.785152,460,832
66582.785152,460,836
66582.785152,461,832
66582.785152,461,832
66582.796548,461,836
66582.796548,461,832
66582.796548,459,836
66582.796548,458,832
66582.796548,457,832
66582.796548,456,836
66582.796548,455,832
66582.796548,455,832
66582.796548,455,836
66582.796548,455,832
66582.796548,455,832
66582.796548,455,836
66582.796548,455,832
66582.796548,455,832
66582.796548,455,836
66582.796548,454,832
66582.81312600001,454,832
66582.81312600001,454,836
66582.81312600001,455,832
66582.81312600001,455,832
66582.81312600001,456,836
66582.81312600001,456,832
66582.81312600001,456,832
66582.81312600001,456,836
66582.81312600001,457,832
66582.81312600001,457,832
66582.81312600001,457,836
66582.81312600001,457,832
66582.81312600001,457,832
66582.81312600001,457,836
66582.81312600001,458,832
66582.81312600001,459,832
66582.825828,460,836
66582.825828,461,832
66582.825828,462,832
66582.825828,463,836
66582.825828,463,832
66582.825828,462,836
66582.825828,462,832
66582.825828,461,832
66582.825828,461,836
66582.825828,460,832
66582.825828,459,832
66582.825828,459,836
66582.825828,458,832
66582.825828,459,832
66582.825828,459,836
66582.825828,461,832
66582.838882,461,832
66582.838882,460,836
66582.838882,460,832
66582.838882,460,832
66582.838882,460,836
66582.838882,459,832
66582.838882,460,832
66582.838882,460,848
66582.838882,460,820
66582.838882,460,832
66582.838882,461,836
66582.838882,463,832
66582.838882,464,832
66582.838882,464,836
66582.838882,465,832
66582.838882,465,832
66582.849936,466,836
66582.849936,466,832
66582.849936,466,832
66582.849936,466,836
66582.849936,466,832
66582.849936,465,836
66582.849936,465,832
66582.849936,465,832
66582.849936,466,836
66582.849936,466,832
66582.849936,466,832
66582.849936,466,836
66582.849936,466,832
66582.849936,466,832
66582.849936,467,836
66582.849936,467,832
66582.862948,468,832
66582.862948,468,836
66582.862948,468,832
66582.862948,469,832
66582.862948,468,836
66582.862948,469,832
66582.862948,469,832
66582.862948,469,836
66582.862948,469,832
66582.862948,469,832
66582.862948,469,836
66582.862948,469,832
66582.862948,469,832
66582.862948,470,836
66582.862948,469,832
66582.862948,469,832
66582.879521,469,836
66582.879521,469,832
66582.879521,469,832
66582.879521,469,836
66582.879521,469,832
66582.879521,469,836
66582.879521,469,832
66582.879521,469,832
66582.879521,469,836
66582.879521,470,832
66582.879521,470,832
66582.879521,470,836
66582.879521,471,832
66582.879521,471,832
66582.879521,471,836
66582.879521,472,832
66582.891,472,832
66582.891,472,836
66582.891,473,832
66582.891,474,832
66582.891,474,836
66582.891,475,832
66582.891,475,832
66582.891,476,836
66582.891,476,832
66582.891,476,832
66582.891,476,836
66582.891,476,832
66582.891,475,832
66582.891,475,836
66582.891,475,832
66582.891,474,832
66582.903577,475,836
66582.903577,474,832
66582.903577,474,832
66582.903577,474,836
66582.903577,475,832
66582.903577,475,836
66582.903577,476,832
66582.903577,476,832
66582.903577,476,836
66582.903577,475,832
66582.903577,475,832
66582.903577,475,836
66582.903577,475,832
66582.903577,476,832
66582.903577,477,836
66582.903577,477,832
66582.916317,477,832
66582.916317,477,836
66582.916317,477,832
66582.916317,478,832
66582.916317,478,836
66582.916317,478,832
66582.916317,479,832
66582.916317,479,836
66582.916317,479,832
66582.916317,479,832
66582.916317,479,836
66582.916317,479,832
66582.916317,480,832
66582.916317,480,836
66582.916317,480,832
66582.916317,479,832
66582.931564,478,836
66582.931564,478,832
66582.931564,478,832
66582.931564,478,836
66582.931564,478,832
66582.931564,478,836
66582.931564,479,832
66582.931564,479,832
66582.931564,479,836
66582.931564,479,832
66582.931564,479,832
66582.931564,479,836
66582.931564,479,832
66582.931564,479,832
66582.931564,479,836
66582.931564,479,832
66582.944196,480,832
66582.944196,481,836
66582.944196,482,832
66582.944196,483,832
66582.944196,483,836
66582.944196,484,832
66582.944196,485,832
66582.944196,486,836
66582.944196,485,832
66582.944196,486,832
66582.944196,486,836
66582.944196,485,832
66582.944196,485,832
66582.944196,485,836
66582.944196,485,832
66582.944196,485,832
66582.95681,485,836
66582.95681,484,832
66582.95681,484,832
66582.95681,484,836
66582.95681,483,832
66582.95681,483,836
66582.95681,482,832
66582.95681,482,832
66582.95681,482,836
66582.95681,482,832
66582.95681,482,832
66582.95681,482,836
66582.95681,482,832
66582.95681,483,832
66582.95681,484,836
66582.95681,484,832
66582.969381,484,832
66582.969381,485,836
66582.969381,485,832
66582.969381,486,832
66582.969381,487,836
66582.969381,488,832
66582.969381,488,832
66582.969381,489,836
66582.969381,489,832
66582.969381,490,832
66582.969381,490,836
66582.969381,491,832
66582.969381,491,832
66582.969381,492,836
66582.969381,492,832
66582.969381,491,832
66582.985663,491,836
66582.985663,491,832
66582.985663,491,832
66582.985663,490,836
66582.985663,488,832
66582.985663,488,836
66582.985663,486,832
66582.985663,486,832
66582.985663,485,836
66582.985663,485,832
66582.985663,485,832
66582.985663,485,836
66582.985663,486,832
66582.985663,486,832
66582.985663,487,836
66582.985663,487,832
66582.998283,487,832
66582.998283,489,836
66582.998283,489,832
66582.998283,489,844
66582.998283,490,824
66582.998283,491,832
66582.998283,491,832
66582.998283,492,836
66582.998283,492,832
66582.998283,492,832
66582.998283,492,836
66582.998283,492,832
66582.998283,492,832
66582.998283,492,836
66582.998283,492,832
66582.998283,492,832
66583.009529,492,836
66583.009529,492,832
66583.009529,492,836
66583.009529,493,832
66583.009529,493,832
66583.009529,493,836
66583.009529,494,832
66583.009529,493,832
66583.009529,494,836
66583.009529,494,832
66583.009529,494,832
66583.009529,494,836
66583.009529,494,832
66583.009529,494,832
66583.009529,494,836
66583.009529,494,832
66583.022347,494,832
66583.022347,494,836
66583.022347,494,832
66583.022347,495,832
66583.022347,495,836
66583.022347,494,832
66583.022347,493,832
66583.022347,492,836
66583.022347,491,832
66583.022347,491,832
66583.022347,491,836
66583.022347,491,832
66583.022347,491,832
66583.022347,491,836
66583.022347,492,832
66583.022347,493,832
66583.038835,493,836
66583.038835,494,832
66583.038835,494,836
66583.038835,495,832
66583.038835,495,832
66583.038835,495,836
66583.038835,495,832
66583.038835,496,832
66583.038835,496,836
66583.038835,496,832
66583.038835,496,832
66583.038835,497,836
66583.038835,497,832
66583.038835,498,832
66583.038835,499,836
66583.038835,499,832
66583.05153499999,499,832
66583.05153499999,500,836
66583.05153499999,499,832
66583.05153499999,499,832
66583.05153499999,498,836
66583.05153499999,497,832
66583.05153499999,497,832
66583.05153499999,497,836
66583.05153499999,496,832
66583.05153499999,496,832
66583.05153499999,496,836
66583.05153499999,496,832
66583.05153499999,497,832
66583.05153499999,496,836
66583.05153499999,496,832
66583.05153499999,496,832
66583.06405300001,496,836
66583.06405300001,496,832
66583.06405300001,496,836
66583.06405300001,496,832
66583.06405300001,496,832
66583.06405300001,496,836
66583.06405300001,497,832
66583.06405300001,497,832
66583.06405300001,497,836
66583.06405300001,497,832
66583.06405300001,497,832
66583.06405300001,497,836
66583.06405300001,496,832
66583.06405300001,496,832
66583.06405300001,497,836
66583.06405300001,497,832
66583.07636,498,832
66583.07636,499,836
66583.07636,499,832
66583.07636,501,832
66583.07636,502,836
66583.07636,503,832
66583.07636,503,832
66583.07636,504,836
66583.07636,504,832
66583.07636,504,832
66583.07636,505,836
66583.07636,504,832
66583.07636,504,832
66583.07636,504,836
66583.07636,503,832
66583.07636,503,832
66583.091675,502,836
66583.091675,502,832
66583.091675,500,832
66583.091675,499,836
66583.091675,498,832
66583.091675,497,836
66583.091675,497,832
66583.091675,497,832
66583.091675,497,836
66583.091675,497,832
66583.091675,497,832
66583.091675,498,836
66583.091675,497,832
66583.091675,498,832
66583.091675,498,836
66583.091675,499,832
66583.104214,499,832
66583.104214,499,836
66583.104214,499,832
66583.104214,499,832
66583.104214,499,836
66583.104214,501,832
66583.104214,501,832
66583.104214,502,836
66583.104214,502,832
66583.104214,503,832
66583.104214,504,836
66583.104214,504,832
66583.104214,505,832
66583.104214,506,836
66583.104214,507,832
66583.104214,508,832
66583.116699,508,836
66583.116699,508,832
66583.116699,508,832
66583.116699,508,836
66583.116699,508,832
66583.116699,507,836
66583.116699,507,832
66583.116699,506,832
66583.116699,506,836
66583.116699,506,832
66583.116699,506,832
66583.116699,506,836
66583.116699,505,832
66583.116699,505,832
66583.116699,506,836
66583.116699,506,832
66583.129308,507,832
66583.129308,507,836
66583.129308,508,832
66583.129308,508,832
66583.129308,509,836
66583.129308,508,832
66583.129308,507,832
66583.129308,507,836
66583.129308,507,832
66583.129308,507,832
66583.129308,506,836
66583.129308,506,832
66583.129308,506,832
66583.129308,505,836
66583.129308,506,832
66583.129308,506,832
66583.145427,506,836
66583.145427,506,832
66583.145427,507,832
66583.145427,507,836
66583.145427,507,832
66583.145427,508,836
66583.145427,509,832
66583.145427,509,832
66583.145427,509,836
66583.145427,509,832
66583.145427,509,832
66583.145427,509,836
66583.145427,508,832
66583.145427,508,832
66583.145427,508,836
66583.145427,508,832
66583.15807,508,832
66583.15807,508,836
66583.15807,508,832
66583.15807,508,832
66583.15807,507,836
66583.15807,508,832
66583.15807,507,832
66583.15807,506,836
66583.15807,506,832
66583.15807,506,832
66583.15807,506,836
66583.15807,506,832
66583.15807,507,832
66583.15807,507,836
66583.15807,507,832
66583.15807,507,832
66583.170464,507,836
66583.170464,506,832
66583.170464,506,832
66583.170464,505,836
66583.170464,505,832
66583.170464,503,836
66583.170464,503,832
66583.170464,504,832
66583.170464,505,836
66583.170464,506,832
66583.170464,507,832
66583.170464,507,836
66583.170464,507,832
66583.170464,508,832
66583.170464,508,836
66583.170464,509,832
66583.185943,509,832
66583.185943,510,836
66583.185943,510,832
66583.185943,509,832
66583.185943,509,836
66583.185943,508,832
66583.185943,508,832
66583.185943,508,836
66583.185943,508,832
66583.185943,507,832
66583.185943,506,848
66583.185943,506,820
66583.185943,506,832
66583.185943,506,836
66583.185943,507,832
66583.185943,507,832
66583.198586,506,836
66583.198586,507,832
66583.198586,507,832
66583.198586,507,836
66583.198586,506,832
66583.198586,506,836
66583.198586,506,832
66583.198586,505,832
66583.198586,505,836
66583.198586,504,832
66583.198586,504,832
66583.198586,505,836
66583.198586,505,832
66583.198586,504,832
66583.198586,504,836
66583.198586,504,832
66583.21119,505,832
66583.21119,505,836
66583.21119,505,832
66583.21119,505,832
66583.21119,506,836
66583.21119,506,832
66583.21119,507,832
66583.21119,507,836
66583.21119,508,832
66583.21119,508,832
66583.21119,509,836
66583.21119,509,832
66583.21119,509,832
66583.21119,510,836
66583.21119,510,832
66583.21119,511,832
66583.222601,512,836
66583.222601,512,832
66583.222601,512,832
66583.222601,513,836
66583.222601,513,832
66583.222601,514,836
66583.222601,515,832
66583.222601,515,832
66583.222601,515,836
66583.222601,516,832
66583.222601,516,832
66583.222601,515,836
66583.222601,515,832
66583.222601,514,832
66583.222601,514,836
66583.222601,513,832
66583.239121,512,832
66583.239121,512,836
66583.239121,512,832
66583.239121,512,832
66583.239121,512,836
66583.239121,512,832
66583.239121,512,832
66583.239121,513,836
66583.239121,512,832
66583.239121,511,832
66583.239121,511,836
66583.239121,510,832
66583.239121,511,832
66583.239121,510,836
66583.239121,510,832
66583.239121,510,832
66583.251988,510,836
66583.251988,510,832
66583.251988,509,836
66583.251988,509,832
66583.251988,509,832
66583.251988,509,836
66583.251988,509,832
66583.251988,509,832
66583.251988,509,836
66583.251988,509,832
66583.251988,509,832
66583.251988,509,836
66583.251988,509,832
66583.251988,509,832
66583.251988,509,836
66583.251988,509,832
66583.26464899999,509,832
66583.26464899999,509,836
66583.26464899999,509,832
66583.26464899999,509,832
66583.26464899999,509,836
66583.26464899999,509,832
66583.26464899999,509,832
66583.26464899999,508,836
66583.26464899999,508,832
66583.26464899999,507,832
66583.26464899999,507,836
66583.26464899999,507,832
66583.26464899999,507,832
66583.26464899999,507,836
66583.26464899999,507,832
66583.26464899999,507,832
66583.281184,508,836
66583.281184,509,832
66583.281184,509,832
66583.281184,509,836
66583.281184,510,832
66583.281184,510,836
66583.281184,510,832
66583.281184,510,832
66583.281184,509,836
66583.281184,509,832
66583.281184,509,832
66583.281184,509,836
66583.281184,509,832
66583.281184,509,832
66583.281184,510,836
66583.281184,510,832
66583.29240399999,510,832
66583.29240399999,510,836
66583.29240399999,510,832
66583.29240399999,510,832
66583.29240399999,510,836
66583.29240399999,511,832
66583.29240399999,510,832
66583.29240399999,510,836
66583.29240399999,511,832
66583.29240399999,510,832
66583.29240399999,510,836
66583.29240399999,509,832
66583.29240399999,509,832
66583.29240399999,508,836
66583.29240399999,508,832
66583.29240399999,508,832
66583.30512799999,509,836
66583.30512799999,509,832
66583.30512799999,510,832
66583.30512799999,511,836
66583.30512799999,512,832
66583.30512799999,512,836
66583.30512799999,513,832
66583.30512799999,514,832
66583.30512799999,514,836
66583.30512799999,513,832
66583.30512799999,513,832
66583.30512799999,513,836
66583.30512799999,512,832
66583.30512799999,512,832
66583.30512799999,512,836
66583.30512799999,512,832
66583.317901,512,832
66583.317901,512,836
66583.317901,513,832
66583.317901,513,832
66583.317901,513,836
66583.317901,513,832
66583.317901,512,832
66583.317901,511,836
66583.317901,512,832
66583.317901,512,832
66583.317901,512,836
66583.317901,511,832
66583.317901,510,832
66583.317901,510,836
66583.317901,510,832
66583.317901,510,832
66583.334371,510,836
66583.334371,509,832
66583.334371,510,832
66583.334371,510,836
66583.334371,510,832
66583.334371,510,836
66583.334371,511,832
66583.334371,511,832
66583.334371,511,836
66583.334371,511,832
66583.334371,512,832
66583.334371,512,836
66583.334371,513,832
66583.334371,513,832
66583.334371,514,836
66583.334371,514,832
66583.345728,514,832
66583.345728,514,836
66583.345728,514,832
66583.345728,514,832
66583.345728,513,836
66583.345728,513,832
66583.345728,514,836
66583.345728,515,832
66583.345728,517,832
66583.345728,517,832
66583.345728,518,836
66583.345728,518,832
66583.345728,520,832
66583.345728,520,836
66583.345728,520,832
66583.345728,519,832
66583.358337,518,836
66583.358337,518,832
66583.358337,518,836
66583.358337,517,832
66583.358337,517,832
66583.358337,517,836
66583.358337,517,832
66583.358337,517,832
66583.358337,516,836
66583.358337,516,832
66583.358337,517,832
66583.358337,516,836
66583.358337,516,832
66583.358337,515,832
66583.358337,515,836
66583.358337,515,832
66583.371151,515,832
66583.371151,515,836
66583.371151,515,832
66583.371151,514,832
66583.371151,514,836
66583.371151,515,832
66583.371151,515,832
66583.371151,515,836
66583.371151,516,832
66583.371151,516,832
66583.371151,516,836
66583.371151,516,832
66583.371151,515,832
66583.371151,515,836
66583.371151,514,832
66583.371151,514,832
66583.387447,513,836
66583.387447,513,832
66583.387447,513,832
66583.387447,513,836
66583.387447,512,832
66583.387447,512,836
66583.387447,512,832
66583.387447,512,832
66583.387447,512,836
66583.387447,512,832
66583.387447,512,832
66583.387447,512,836
66583.387447,513,832
66583.387447,514,832
66583.387447,514,836
66583.387447,514,832
66583.398887,515,832
66583.398887,516,836
66583.398887,517,832
66583.398887,518,832
66583.398887,519,836
66583.398887,518,832
66583.398887,518,832
66583.398887,517,836
66583.398887,517,832
66583.398887,516,832
66583.398887,516,836
66583.398887,516,832
66583.398887,516,832
66583.398887,517,836
66583.398887,517,832
66583.398887,517,832
66583.41169200001,517,836
66583.41169200001,517,832
66583.41169200001,517,836
66583.41169200001,517,832
66583.41169200001,517,832
66583.41169200001,518,836
66583.41169200001,519,832
66583.41169200001,519,832
66583.41169200001,519,836
66583.41169200001,518,832
66583.41169200001,518,832
66583.41169200001,518,836
66583.41169200001,518,832
66583.41169200001,518,832
66583.41169200001,517,836
66583.41169200001,517,832
66583.423303,517,832
66583.423303,517,836
66583.423303,518,832
66583.423303,518,832
66583.423303,519,836
66583.423303,519,832
66583.423303,518,832
66583.423303,518,836
66583.423303,518,832
66583.423303,519,832
66583.423303,520,836
66583.423303,521,832
66583.423303,521,832
66583.423303,522,836
66583.423303,522,832
66583.423303,522,832
66583.43592,521,836
66583.43592,521,832
66583.43592,521,836
66583.43592,522,832
66583.43592,522,832
66583.43592,522,836
66583.43592,522,832
66583.43592,522,832
66583.43592,524,836
66583.43592,524,832
66583.43592,525,832
66583.43592,525,836
66583.43592,526,832
66583.43592,525,832
66583.43592,524,836
66583.43592,523,832
66583.452394,522,832
66583.452394,522,836
66583.452394,522,832
66583.452394,521,832
66583.452394,521,836
66583.452394,521,832
66583.452394,521,832
66583.452394,521,836
66583.452394,521,832
66583.452394,520,832
66583.452394,520,836
66583.452394,520,832
66583.452394,519,832
66583.452394,519,836
66583.452394,519,832
66583.452394,519,832
66583.464964,520,836
66583.464964,519,832
66583.464964,519,832
66583.464964,519,836
66583.464964,519,832
66583.464964,518,836
66583.464964,518,832
66583.464964,518,832
66583.464964,518,836
66583.464964,518,832
66583.464964,519,832
66583.464964,519,836
66583.464964,519,832
66583.464964,519,832
66583.464964,519,836
66583.464964,519,832
