timestamp,data1,data2
66590.318167,510,736
66590.318167,511,836
66590.318167,512,832
66590.318167,512,832
66590.318167,513,836
66590.318167,513,832
66590.318167,514,836
66590.318167,514,832
66590.318167,514,832
66590.318167,515,836
66590.318167,515,832
66590.318167,516,832
66590.318167,517,836
66590.318167,516,832
66590.34456099999,517,832
66590.34456099999,517,836
66590.34456099999,518,832
66590.34456099999,518,832
66590.34456099999,519,836
66590.34456099999,518,832
66590.34456099999,518,832
66590.34456099999,518,836
66590.34456099999,518,832
66590.34456099999,518,832
66590.34456099999,518,836
66590.34456099999,518,832
66590.34456099999,518,832
66590.34456099999,518,836
66590.34456099999,518,832
66590.34456099999,519,832
66590.345647,519,836
66590.345647,519,832
66590.345647,519,832
66590.345647,519,836
66590.345647,520,832
66590.345647,520,832
66590.345647,520,836
66590.345647,520,832
66590.345647,521,832
66590.345647,521,836
66590.345647,520,832
66590.345647,520,836
66590.345647,520,832
66590.345647,519,832
66590.345647,519,836
66590.345647,519,832
66590.358521,519,832
66590.358521,519,836
66590.358521,518,832
66590.358521,519,832
66590.358521,519,836
66590.358521,518,832
66590.358521,518,832
66590.358521,518,836
66590.358521,518,832
66590.358521,518,832
66590.358521,518,836
66590.358521,518,832
66590.358521,518,832
66590.358521,519,836
66590.358521,520,832
66590.358521,521,832
66590.370133,521,836
66590.370133,521,832
66590.370133,520,832
66590.370133,519,836
66590.370133,519,832
66590.370133,518,832
66590.370133,518,836
66590.370133,518,832
66590.370133,517,832
66590.370133,516,836
66590.370133,516,832
66590.370133,516,836
66590.370133,516,832
66590.370133,517,832
66590.370133,516,836
66590.370133,517,832
66590.382839,517,832
66590.382839,518,836
66590.382839,518,832
66590.382839,518,832
66590.382839,518,836
66590.382839,517,832
66590.382839,517,832
66590.382839,517,836
66590.382839,516,832
66590.382839,516,832
66590.382839,516,836
66590.382839,516,832
66590.382839,516,832
66590.382839,516,836
66590.382839,515,832
66590.382839,515,832
66590.395275,516,836
66590.395275,515,832
66590.395275,516,832
66590.395275,515,836
66590.395275,515,832
66590.395275,515,832
66590.395275,515,836
66590.395275,515,832
66590.395275,516,832
66590.395275,516,836
66590.395275,516,832
66590.395275,516,836
66590.395275,516,832
66590.395275,516,832
66590.395275,516,836
66590.395275,516,832
66590.41174499999,515,832
66590.41174499999,515,836
66590.41174499999,514,832
66590.41174499999,514,832
66590.41174499999,514,836
66590.41174499999,514,832
66590.41174499999,515,832
66590.41174499999,515,836
66590.41174499999,515,832
66590.41174499999,515,832
66590.41174499999,515,836
66590.41174499999,515,832
66590.41174499999,515,832
66590.41174499999,515,836
66590.41174499999,515,832
66590.41174499999,516,832
66590.423067,516,836
66590.423067,516,832
66590.423067,516,832
66590.423067,515,836
66590.423067,515,832
66590.423067,515,832
66590.423067,514,836
66590.423067,513,832
66590.423067,513,832
66590.423067,512,836
66590.423067,512,832
66590.423067,512,836
66590.423067,513,832
66590.423067,513,832
66590.423067,512,836
66590.423067,513,832
66590.435724,512,832
66590.435724,512,836
66590.435724,512,832
66590.435724,513,832
66590.435724,514,836
66590.435724,514,832
66590.435724,515,832
66590.435724,515,836
66590.435724,516,832
66590.435724,518,832
66590.435724,519,836
66590.435724,520,832
66590.435724,521,832
66590.435724,521,836
66590.435724,522,832
66590.435724,522,832
66590.452036,523,836
66590.452036,523,832
66590.452036,522,832
66590.452036,522,836
66590.452036,520,832
66590.452036,520,832
66590.452036,520,836
66590.452036,520,832
66590.452036,520,832
66590.452036,519,836
66590.452036,518,832
66590.452036,517,836
66590.452036,517,832
66590.452036,518,832
66590.452036,517,836
66590.452036,517,832
66590.464614,516,832
66590.464614,516,836
66590.464614,515,832
66590.464614,515,832
66590.464614,514,836
66590.464614,514,832
66590.464614,514,832
66590.464614,513,836
66590.464614,513,832
66590.464614,513,832
66590.464614,513,836
66590.464614,513,832
66590.464614,513,832
66590.464614,513,836
66590.464614,512,832
66590.464614,512,832
66590.47722999999,511,836
66590.47722999999,511,832
66590.47722999999,511,832
66590.47722999999,511,836
66590.47722999999,512,832
66590.47722999999,512,832
66590.47722999999,512,836
66590.47722999999,512,832
66590.47722999999,512,836
66590.47722999999,512,832
66590.47722999999,513,832
66590.47722999999,513,836
66590.47722999999,513,832
66590.47722999999,512,832
66590.47722999999,513,836
66590.47722999999,513,832
66590.48865,514,832
66590.48865,514,836
66590.48865,514,832
66590.48865,515,832
66590.48865,515,836
66590.48865,516,832
66590.48865,516,832
66590.48865,516,836
66590.48865,515,832
66590.48865,514,832
66590.48865,514,836
66590.48865,513,832
66590.48865,513,832
66590.48865,513,836
66590.48865,514,832
66590.48865,514,832
66590.505142,515,836
66590.505142,514,832
66590.505142,514,832
66590.505142,515,836
66590.505142,515,832
66590.505142,515,832
66590.505142,515,836
66590.505142,516,832
66590.505142,516,836
66590.505142,516,832
66590.505142,517,832
66590.505142,516,836
66590.505142,516,832
66590.505142,516,832
66590.505142,516,836
66590.505142,516,832
66590.518006,516,832
66590.518006,516,836
66590.518006,516,832
66590.518006,516,832
66590.518006,516,836
66590.518006,516,832
66590.518006,517,832
66590.518006,516,836
66590.518006,516,832
66590.518006,516,832
66590.518006,515,836
66590.518006,516,832
66590.518006,516,832
66590.518006,516,836
66590.518006,516,832
66590.518006,516,832
66590.52957,516,836
66590.52957,515,832
66590.52957,515,832
66590.52957,515,836
66590.52957,515,832
66590.52957,515,832
66590.52957,515,836
66590.52957,515,832
66590.52957,515,832
66590.52957,515,836
66590.52957,516,832
66590.52957,516,836
66590.52957,516,832
66590.52957,516,832
66590.52957,516,836
66590.52957,516,832
66590.546543,516,832
66590.546543,516,836
66590.546543,516,832
66590.546543,517,832
66590.546543,517,836
66590.546543,518,832
66590.546543,518,832
66590.546543,518,836
66590.546543,518,832
66590.546543,519,832
66590.546543,519,836
66590.546543,519,832
66590.546543,519,832
66590.546543,519,836
66590.546543,519,832
66590.546543,519,832
66590.558894,519,836
66590.558894,519,832
66590.558894,519,832
66590.558894,519,836
66590.558894,519,832
66590.558894,518,832
66590.558894,518,836
66590.558894,519,832
66590.558894,519,832
66590.558894,519,836
66590.558894,519,832
66590.558894,519,836
66590.558894,520,832
66590.558894,520,832
66590.558894,520,836
66590.558894,520,832
66590.570246,520,832
66590.570246,520,836
66590.570246,520,832
66590.570246,520,832
66590.570246,519,836
66590.570246,518,832
66590.570246,518,832
66590.570246,518,836
66590.570246,517,832
66590.570246,517,832
66590.570246,516,836
66590.570246,517,832
66590.570246,517,832
66590.570246,517,836
66590.570246,517,832
66590.570246,517,832
66590.583174,517,836
66590.583174,518,832
66590.583174,518,832
66590.583174,517,836
66590.583174,518,832
66590.583174,518,832
66590.583174,518,836
66590.583174,519,832
66590.583174,519,832
66590.583174,519,836
66590.583174,519,832
66590.583174,518,836
66590.583174,519,832
66590.583174,518,832
66590.583174,517,836
66590.583174,517,832
66590.59946700001,516,832
66590.59946700001,516,836
66590.59946700001,516,832
66590.59946700001,516,832
66590.59946700001,516,836
66590.59946700001,517,832
66590.59946700001,517,832
66590.59946700001,518,836
66590.59946700001,517,832
66590.59946700001,517,832
66590.59946700001,517,836
66590.59946700001,517,832
66590.59946700001,517,832
66590.59946700001,517,836
66590.59946700001,517,832
66590.59946700001,517,832
66590.612192,517,836
66590.612192,517,832
66590.612192,518,832
66590.612192,518,836
66590.612192,518,832
66590.612192,519,832
66590.612192,519,836
66590.612192,519,832
66590.612192,520,832
66590.612192,521,836
66590.612192,521,832
66590.612192,521,836
66590.612192,521,832
66590.612192,521,832
66590.612192,521,836
66590.612192,521,832
66590.623578,521,832
66590.623578,522,836
66590.623578,522,832
66590.623578,523,832
66590.623578,522,836
66590.623578,522,832
66590.623578,522,832
66590.623578,521,836
66590.623578,521,832
66590.623578,521,832
66590.623578,521,836
66590.623578,521,832
66590.623578,521,832
66590.623578,521,836
66590.623578,521,844
66590.623578,521,820
66590.636215,522,836
66590.636215,521,832
66590.636215,521,832
66590.636215,520,836
66590.636215,519,832
66590.636215,519,832
66590.636215,518,836
66590.636215,518,832
66590.636215,517,836
66590.636215,518,832
66590.636215,518,832
66590.636215,518,836
66590.636215,518,832
66590.636215,519,832
66590.636215,518,836
66590.636215,519,832
66590.648837,519,832
66590.648837,519,836
66590.648837,519,832
66590.648837,520,832
66590.648837,520,836
66590.648837,520,832
66590.648837,519,832
66590.648837,519,836
66590.648837,519,832
66590.648837,519,832
66590.648837,519,836
66590.648837,519,832
66590.648837,520,832
66590.648837,520,836
66590.648837,520,832
66590.648837,520,832
66590.665446,520,836
66590.665446,519,832
66590.665446,519,832
66590.665446,519,836
66590.665446,519,832
66590.665446,519,832
66590.665446,518,836
66590.665446,518,832
66590.665446,518,832
66590.665446,518,836
66590.665446,518,832
66590.665446,518,836
66590.665446,518,832
66590.665446,518,832
66590.665446,518,836
66590.665446,518,832
66590.677789,518,832
66590.677789,518,836
66590.677789,518,832
66590.677789,518,832
66590.677789,518,836
66590.677789,518,832
66590.677789,518,832
66590.677789,518,836
66590.677789,517,832
66590.677789,518,832
66590.677789,517,836
66590.677789,517,832
66590.677789,517,832
66590.677789,517,836
66590.677789,517,832
66590.677789,516,832
66590.68896,517,836
66590.68896,516,832
66590.68896,516,832
66590.68896,516,836
66590.68896,515,832
66590.68896,516,832
66590.68896,516,836
66590.68896,516,832
66590.68896,516,836
66590.68896,517,832
66590.68896,517,832
66590.68896,517,836
66590.68896,516,832
66590.68896,516,832
66590.68896,516,836
66590.68896,516,832
66590.701554,516,832
66590.701554,516,836
66590.701554,516,832
66590.701554,517,832
66590.701554,516,836
66590.701554,516,832
66590.701554,515,832
66590.701554,515,836
66590.701554,515,832
66590.701554,515,832
66590.701554,516,836
66590.701554,515,832
66590.701554,515,832
66590.701554,515,836
66590.701554,515,832
66590.701554,514,832
66590.718,514,836
66590.718,514,832
66590.718,515,832
66590.718,515,836
66590.718,516,832
66590.718,516,832
66590.718,516,836
66590.718,516,832
66590.718,517,832
66590.718,517,836
66590.718,517,832
66590.718,516,836
66590.718,517,832
66590.718,517,832
66590.718,517,836
66590.718,517,832
66590.730698,517,832
66590.730698,518,836
66590.730698,518,832
66590.730698,518,832
66590.730698,519,836
66590.730698,519,832
66590.730698,520,832
66590.730698,520,836
66590.730698,521,832
66590.730698,520,832
66590.730698,520,836
66590.730698,520,832
66590.730698,520,832
66590.730698,520,836
66590.730698,520,832
66590.730698,520,832
66590.74333299999,520,836
66590.74333299999,520,832
66590.74333299999,521,832
66590.74333299999,521,836
66590.74333299999,522,832
66590.74333299999,522,832
66590.74333299999,522,836
66590.74333299999,521,832
66590.74333299999,521,832
66590.74333299999,521,836
66590.74333299999,521,832
66590.74333299999,521,836
66590.74333299999,521,832
66590.74333299999,521,832
66590.74333299999,520,836
66590.74333299999,520,832
66590.75492800001,520,832
66590.75492800001,520,836
66590.75492800001,521,832
66590.75492800001,522,832
66590.75492800001,522,836
66590.75492800001,522,832
66590.75492800001,523,832
66590.75492800001,523,836
66590.75492800001,524,832
66590.75492800001,524,832
66590.75492800001,525,836
66590.75492800001,525,832
66590.75492800001,524,832
66590.75492800001,524,836
66590.75492800001,524,832
66590.75492800001,524,832
66590.76725199999,524,836
66590.76725199999,524,832
66590.76725199999,524,832
66590.76725199999,524,836
66590.76725199999,524,832
66590.76725199999,525,832
66590.76725199999,526,836
66590.76725199999,527,832
66590.76725199999,527,836
66590.76725199999,527,832
66590.76725199999,527,832
66590.76725199999,527,836
66590.76725199999,528,832
66590.76725199999,528,832
66590.76725199999,528,836
66590.76725199999,528,832
66590.78351,528,832
66590.78351,528,836
66590.78351,529,832
66590.78351,528,832
66590.78351,528,836
66590.78351,528,832
66590.78351,528,832
66590.78351,528,836
66590.78351,529,832
66590.78351,529,832
66590.78351,529,836
66590.78351,530,832
66590.78351,530,832
66590.78351,530,836
66590.78351,530,832
66590.78351,529,832
66590.796088,529,836
66590.796088,530,832
66590.796088,530,832
66590.796088,530,836
66590.796088,531,832
66590.796088,531,832
66590.796088,530,836
66590.796088,529,832
66590.796088,529,832
66590.796088,529,836
66590.796088,529,832
66590.796088,529,836
66590.796088,529,832
66590.796088,528,832
66590.796088,528,836
66590.796088,528,832
66590.808717,527,832
66590.808717,528,836
66590.808717,528,832
66590.808717,528,832
66590.808717,527,836
66590.808717,527,832
66590.808717,527,832
66590.808717,527,836
66590.808717,527,832
66590.808717,527,832
66590.808717,528,836
66590.808717,527,832
66590.808717,528,832
66590.808717,528,836
66590.808717,527,832
66590.808717,527,832
66590.82520400001,528,836
66590.82520400001,529,832
66590.82520400001,529,832
66590.82520400001,530,836
66590.82520400001,531,832
66590.82520400001,533,832
66590.82520400001,535,836
66590.82520400001,536,832
66590.82520400001,539,836
66590.82520400001,540,832
66590.82520400001,541,832
66590.82520400001,541,836
66590.82520400001,542,832
66590.82520400001,543,832
66590.82520400001,544,836
66590.82520400001,545,832
66590.836637,547,832
66590.836637,548,836
66590.836637,549,832
66590.836637,550,832
66590.836637,552,836
66590.836637,555,832
66590.836637,558,832
66590.836637,560,836
66590.836637,562,832
66590.836637,563,832
66590.836637,567,836
66590.836637,569,832
66590.836637,572,832
66590.836637,575,836
66590.836637,579,832
66590.836637,583,832
66590.849379,587,836
66590.849379,591,832
66590.849379,594,832
66590.849379,597,836
66590.849379,600,832
66590.849379,603,832
66590.849379,606,836
66590.849379,609,832
66590.849379,611,832
66590.849379,613,836
66590.849379,617,832
66590.849379,620,836
66590.849379,623,832
66590.849379,626,832
66590.849379,630,836
66590.849379,634,832
66590.862105,638,832
66590.862105,641,836
66590.862105,645,832
66590.862105,649,832
66590.862105,653,836
66590.862105,657,832
66590.862105,661,832
66590.862105,664,836
66590.862105,667,832
66590.862105,671,832
66590.862105,673,836
66590.862105,676,832
66590.862105,680,832
66590.862105,684,836
66590.862105,688,832
66590.862105,692,832
66590.87867800001,695,836
66590.87867800001,698,832
66590.87867800001,701,832
66590.87867800001,702,836
66590.87867800001,704,832
66590.87867800001,705,832
66590.87867800001,706,836
66590.87867800001,707,832
66590.87867800001,708,832
66590.87867800001,710,836
66590.87867800001,712,832
66590.87867800001,714,836
66590.87867800001,715,832
66590.87867800001,718,832
66590.87867800001,720,836
66590.87867800001,721,832
66590.89000900001,721,832
66590.89000900001,722,836
66590.89000900001,723,832
66590.89000900001,723,832
66590.89000900001,723,836
66590.89000900001,725,832
66590.89000900001,726,832
66590.89000900001,727,836
66590.89000900001,728,832
66590.89000900001,729,832
66590.89000900001,731,836
66590.89000900001,733,832
66590.89000900001,734,832
66590.89000900001,735,836
66590.89000900001,736,832
66590.89000900001,737,832
66590.90261599999,738,836
66590.90261599999,739,832
66590.90261599999,740,832
66590.90261599999,741,836
66590.90261599999,741,832
66590.90261599999,741,832
66590.90261599999,741,836
66590.90261599999,741,832
66590.90261599999,743,832
66590.90261599999,745,836
66590.90261599999,747,832
66590.90261599999,750,836
66590.90261599999,753,832
66590.90261599999,756,832
66590.90261599999,759,836
66590.90261599999,762,832
66590.918964,764,832
66590.918964,765,836
66590.918964,766,832
66590.918964,767,832
66590.918964,769,836
66590.918964,771,832
66590.918964,773,832
66590.918964,776,836
66590.918964,781,832
66590.918964,783,832
66590.918964,787,836
66590.918964,790,832
66590.918964,794,832
66590.918964,795,836
66590.918964,797,832
66590.918964,799,832
66590.931694,800,836
66590.931694,801,832
66590.931694,804,832
66590.931694,806,836
66590.931694,810,832
66590.931694,814,832
66590.931694,816,836
66590.931694,817,832
66590.931694,817,832
66590.931694,818,836
66590.931694,820,832
66590.931694,823,836
66590.931694,825,832
66590.931694,828,832
66590.931694,829,836
66590.931694,831,832
66590.943146,832,832
66590.943146,833,836
66590.943146,833,832
66590.943146,832,832
66590.943146,832,836
66590.943146,832,832
66590.943146,832,832
66590.943146,831,836
66590.943146,831,832
66590.943146,831,832
66590.943146,832,836
66590.943146,833,832
66590.943146,833,832
66590.943146,833,836
66590.943146,833,832
66590.943146,833,832
66590.956101,831,836
66590.956101,831,832
66590.956101,832,832
66590.956101,831,836
66590.956101,831,832
66590.956101,830,832
66590.956101,830,836
66590.956101,830,832
66590.956101,830,836
66590.956101,829,832
66590.956101,828,832
66590.956101,827,836
66590.956101,825,832
66590.956101,825,832
66590.956101,823,836
66590.956101,821,832
66590.97269,818,832
66590.97269,815,836
66590.97269,813,832
66590.97269,811,832
66590.97269,810,836
66590.97269,810,832
66590.97269,809,832
66590.97269,810,836
66590.97269,809,832
66590.97269,808,832
66590.97269,806,836
66590.97269,804,832
66590.97269,803,832
66590.97269,803,836
66590.97269,802,832
66590.97269,801,832
66590.985264,800,836
66590.985264,800,844
66590.985264,800,820
66590.985264,799,836
66590.985264,797,832
66590.985264,794,832
66590.985264,791,836
66590.985264,789,832
66590.985264,787,836
66590.985264,785,832
66590.985264,784,832
66590.985264,784,836
66590.985264,783,832
66590.985264,783,832
66590.985264,784,836
66590.985264,784,832
66590.996358,783,832
66590.996358,782,836
66590.996358,781,832
66590.996358,780,832
66590.996358,778,836
66590.996358,777,832
66590.996358,774,832
66590.996358,772,836
66590.996358,770,832
66590.996358,768,832
66590.996358,766,836
66590.996358,765,832
66590.996358,764,832
66590.996358,763,836
66590.996358,762,832
66590.996358,762,832
66591.012724,761,836
66591.012724,759,832
66591.012724,758,832
66591.012724,757,836
66591.012724,756,832
66591.012724,755,832
66591.012724,753,836
66591.012724,752,832
66591.012724,751,832
66591.012724,749,836
66591.012724,748,832
66591.012724,747,836
66591.012724,746,832
66591.012724,745,832
66591.012724,743,836
66591.012724,741,832
66591.025394,739,832
66591.025394,737,836
66591.025394,735,832
66591.025394,733,832
66591.025394,731,836
66591.025394,729,832
66591.025394,727,832
66591.025394,726,836
66591.025394,725,832
66591.025394,724,832
66591.025394,722,836
66591.025394,720,832
66591.025394,718,832
66591.025394,716,836
66591.025394,714,832
66591.025394,712,832
66591.038051,710,836
66591.038051,708,832
66591.038051,706,832
66591.038051,705,836
66591.038051,703,832
66591.038051,702,832
66591.038051,700,836
66591.038051,698,832
66591.038051,696,836
66591.038051,694,832
66591.038051,692,832
66591.038051,691,836
66591.038051,690,832
66591.038051,689,832
66591.038051,688,836
66591.038051,687,832
66591.049422,687,832
66591.049422,686,836
66591.049422,684,832
66591.049422,683,832
66591.049422,682,836
66591.049422,680,832
66591.049422,679,832
66591.049422,678,836
66591.049422,677,832
66591.049422,676,832
66591.049422,675,836
66591.049422,674,832
66591.049422,673,832
66591.049422,672,836
66591.049422,672,832
66591.049422,671,832
66591.065956,670,836
66591.065956,669,832
66591.065956,669,832
66591.065956,668,836
66591.065956,667,832
66591.065956,666,832
66591.065956,665,836
66591.065956,663,832
66591.065956,662,832
66591.065956,662,836
66591.065956,661,832
66591.065956,660,836
66591.065956,660,832
66591.065956,659,832
66591.065956,658,836
66591.065956,657,832
66591.078408,655,832
66591.078408,654,836
66591.078408,653,832
66591.078408,652,832
66591.078408,651,836
66591.078408,650,832
66591.078408,650,832
66591.078408,648,836
66591.078408,647,832
66591.078408,646,832
66591.078408,645,836
66591.078408,644,832
66591.078408,644,832
66591.078408,642,836
66591.078408,641,832
66591.078408,640,832
66591.091199,639,836
66591.091199,639,832
66591.091199,638,832
66591.091199,638,836
66591.091199,638,832
66591.091199,638,832
66591.091199,637,836
66591.091199,636,832
66591.091199,635,832
66591.091199,634,836
66591.091199,632,832
66591.091199,630,836
66591.091199,628,832
66591.091199,626,832
66591.091199,624,836
66591.091199,623,832
66591.10379,622,832
66591.10379,621,836
66591.10379,620,832
66591.10379,619,832
66591.10379,618,836
66591.10379,617,832
66591.10379,615,832
66591.10379,614,836
66591.10379,613,832
66591.10379,612,832
66591.10379,612,836
66591.10379,611,832
66591.10379,611,832
66591.10379,611,836
66591.10379,611,832
66591.10379,611,832
66591.11531000001,610,836
66591.11531000001,609,832
66591.11531000001,609,832
66591.11531000001,609,836
66591.11531000001,609,832
66591.11531000001,608,832
66591.11531000001,607,836
66591.11531000001,606,832
66591.11531000001,605,832
66591.11531000001,605,836
66591.11531000001,604,832
66591.11531000001,603,836
66591.11531000001,603,832
66591.11531000001,602,832
66591.11531000001,601,836
66591.11531000001,601,832
66591.131909,601,832
66591.131909,601,836
66591.131909,601,832
66591.131909,601,832
66591.131909,600,836
66591.131909,599,832
66591.131909,598,832
66591.131909,598,836
66591.131909,598,832
66591.131909,598,832
66591.131909,597,836
66591.131909,597,832
66591.131909,596,832
66591.131909,596,836
66591.131909,595,832
66591.131909,595,832
66591.144534,594,836
66591.144534,594,832
66591.144534,593,832
66591.144534,593,836
66591.144534,592,832
66591.144534,592,832
66591.144534,592,836
66591.144534,591,832
66591.144534,591,832
66591.144534,591,836
66591.144534,590,832
66591.144534,589,836
66591.144534,589,832
66591.144534,589,832
66591.144534,588,836
66591.144534,588,832
66591.156996,589,832
66591.156996,588,836
66591.156996,588,832
66591.156996,587,832
66591.156996,587,836
66591.156996,587,832
66591.156996,587,832
66591.156996,587,836
66591.156996,587,832
66591.156996,587,832
66591.156996,587,836
66591.156996,587,832
66591.156996,587,832
66591.156996,587,836
66591.156996,587,832
66591.156996,586,832
66591.168405,587,836
66591.168405,587,832
66591.168405,587,832
66591.168405,588,836
66591.168405,587,832
66591.168405,587,832
66591.168405,586,836
66591.168405,586,832
66591.168405,585,848
66591.168405,584,820
66591.168405,583,832
66591.168405,584,836
66591.168405,583,832
66591.168405,583,832
66591.168405,583,836
66591.168405,583,832
66591.185085,583,832
66591.185085,582,836
66591.185085,582,832
66591.185085,581,832
66591.185085,580,836
66591.185085,578,832
66591.185085,577,832
66591.185085,577,836
66591.185085,576,832
66591.185085,576,832
66591.185085,575,836
66591.185085,575,832
66591.185085,574,832
66591.185085,574,836
66591.185085,573,832
66591.185085,572,832
66591.197869,571,836
66591.197869,571,832
66591.197869,570,832
66591.197869,569,836
66591.197869,569,832
66591.197869,569,832
66591.197869,569,836
66591.197869,569,832
66591.197869,569,836
66591.197869,569,832
66591.197869,570,832
66591.197869,570,836
66591.197869,570,832
66591.197869,570,832
66591.197869,570,836
66591.197869,569,832
66591.210282,568,832
66591.210282,568,836
66591.210282,567,832
66591.210282,566,832
66591.210282,566,836
66591.210282,566,832
66591.210282,566,832
66591.210282,565,836
66591.210282,565,832
66591.210282,565,832
66591.210282,564,836
66591.210282,564,832
66591.210282,563,832
66591.210282,562,836
66591.210282,563,832
66591.210282,562,832
66591.221603,563,836
66591.221603,563,832
66591.221603,564,832
66591.221603,565,836
66591.221603,565,832
66591.221603,565,832
66591.221603,566,836
66591.221603,566,832
66591.221603,566,832
66591.221603,566,836
66591.221603,566,832
66591.221603,566,836
66591.221603,566,832
66591.221603,565,832
66591.221603,564,836
66591.221603,564,832
66591.238059,565,832
66591.238059,565,836
66591.238059,565,832
66591.238059,565,832
66591.238059,565,836
66591.238059,565,832
66591.238059,564,832
66591.238059,564,836
66591.238059,563,832
66591.238059,563,832
66591.238059,562,836
66591.238059,562,832
66591.238059,562,832
66591.238059,562,836
66591.238059,563,832
66591.238059,563,832
66591.250779,563,836
66591.250779,562,832
66591.250779,562,832
66591.250779,561,836
66591.250779,560,832
66591.250779,560,832
66591.250779,560,836
66591.250779,560,832
66591.250779,559,832
66591.250779,558,836
66591.250779,558,832
66591.250779,558,836
66591.250779,557,832
66591.250779,557,832
66591.250779,556,836
66591.250779,555,832
66591.263513,555,832
66591.263513,554,836
66591.263513,553,832
66591.263513,553,832
66591.263513,554,836
66591.263513,553,832
66591.263513,552,832
66591.263513,552,836
66591.263513,552,832
66591.263513,552,832
66591.263513,552,836
66591.263513,552,832
66591.263513,552,832
66591.263513,551,836
66591.263513,551,832
66591.263513,552,832
66591.274959,552,836
66591.274959,552,832
66591.274959,552,832
66591.274959,552,836
66591.274959,552,832
66591.274959,551,832
66591.274959,551,836
66591.274959,551,832
66591.274959,551,832
66591.274959,551,836
66591.274959,551,832
66591.274959,552,836
66591.274959,553,832
66591.274959,554,832
66591.274959,554,836
66591.274959,554,832
66591.291543,554,832
66591.291543,554,836
66591.291543,554,832
66591.291543,554,832
66591.291543,553,836
66591.291543,553,832
66591.291543,553,832
66591.291543,552,836
66591.291543,552,832
66591.291543,551,832
66591.291543,551,836
66591.291543,550,832
66591.291543,550,832
66591.291543,549,836
66591.291543,548,832
66591.291543,547,832
66591.304437,546,836
66591.304437,546,832
66591.304437,545,832
66591.304437,545,836
66591.304437,544,832
66591.304437,545,832
66591.304437,545,836
66591.304437,544,832
66591.304437,544,836
66591.304437,544,832
66591.304437,544,832
66591.304437,545,836
66591.304437,545,832
66591.304437,545,832
66591.304437,546,836
66591.304437,546,832
66591.315871,547,832
66591.315871,546,836
66591.315871,547,832
66591.315871,547,832
66591.315871,547,836
66591.315871,548,832
66591.315871,548,832
66591.315871,548,836
66591.315871,548,832
66591.315871,548,832
66591.315871,548,836
66591.315871,548,832
66591.315871,548,832
66591.315871,547,836
66591.315871,547,832
66591.315871,547,832
66591.328509,547,836
66591.328509,548,832
66591.328509,547,832
66591.328509,547,836
66591.328509,547,844
66591.328509,546,820
66591.328509,545,836
66591.328509,546,832
66591.328509,546,832
66591.328509,547,836
66591.328509,546,832
66591.328509,546,836
66591.328509,546,832
66591.328509,547,832
66591.328509,547,836
66591.328509,546,832
66591.344945,545,832
66591.344945,544,836
66591.344945,543,832
66591.344945,543,832
66591.344945,542,836
66591.344945,542,832
66591.344945,542,832
66591.344945,542,836
66591.344945,542,832
66591.344945,541,832
66591.344945,541,836
66591.344945,542,832
66591.344945,542,832
66591.344945,542,836
66591.344945,542,832
66591.344945,542,832
66591.35765600001,542,836
66591.35765600001,542,832
66591.35765600001,542,832
66591.35765600001,542,836
66591.35765600001,542,832
66591.35765600001,542,832
66591.35765600001,542,836
66591.35765600001,541,832
66591.35765600001,542,836
66591.35765600001,542,832
66591.35765600001,542,832
66591.35765600001,542,836
66591.35765600001,541,832
66591.35765600001,541,832
66591.35765600001,542,836
66591.35765600001,542,832
66591.36902099999,541,832
66591.36902099999,541,836
66591.36902099999,541,832
66591.36902099999,542,832
66591.36902099999,541,836
66591.36902099999,541,832
66591.36902099999,540,832
66591.36902099999,540,836
66591.36902099999,539,832
66591.36902099999,539,832
66591.36902099999,539,836
66591.36902099999,539,832
66591.36902099999,538,832
66591.36902099999,539,836
66591.36902099999,539,832
66591.36902099999,538,832
66591.38557299999,538,836
66591.38557299999,538,832
66591.38557299999,538,832
66591.38557299999,537,836
66591.38557299999,537,832
66591.38557299999,537,832
66591.38557299999,537,836
66591.38557299999,538,832
66591.38557299999,538,836
66591.38557299999,538,832
66591.38557299999,538,832
66591.38557299999,538,836
66591.38557299999,539,832
66591.38557299999,539,832
66591.38557299999,540,836
66591.38557299999,540,832
66591.39900199999,540,832
66591.39900199999,541,836
66591.39900199999,541,832
66591.39900199999,541,832
66591.39900199999,541,836
66591.39900199999,541,832
66591.39900199999,541,832
66591.39900199999,540,836
66591.39900199999,540,832
66591.39900199999,539,832
66591.39900199999,539,836
66591.39900199999,539,832
66591.39900199999,538,832
66591.39900199999,538,836
66591.39900199999,537,832
66591.39900199999,537,832
66591.411028,537,836
66591.411028,537,832
66591.411028,538,832
66591.411028,538,836
66591.411028,538,832
66591.411028,537,832
66591.411028,537,836
66591.411028,537,832
66591.411028,536,832
66591.411028,536,836
66591.411028,537,832
66591.411028,537,836
66591.411028,536,832
66591.411028,536,832
66591.411028,536,836
66591.411028,537,832
66591.423449,537,832
66591.423449,538,836
66591.423449,538,832
66591.423449,538,832
66591.423449,538,836
66591.423449,538,832
66591.423449,537,832
66591.423449,537,836
66591.423449,536,832
66591.423449,537,832
66591.423449,536,836
66591.423449,537,832
66591.423449,537,832
66591.423449,538,836
66591.423449,539,832
66591.423449,539,832
66591.439608,540,836
66591.439608,540,832
66591.439608,540,832
66591.439608,540,836
66591.439608,540,832
66591.439608,541,832
66591.439608,541,836
66591.439608,542,832
66591.439608,542,832
66591.439608,543,836
66591.439608,542,832
66591.439608,542,836
66591.439608,542,832
66591.439608,542,832
66591.439608,542,836
66591.439608,541,832
66591.451095,541,832
66591.451095,541,836
66591.451095,541,832
66591.451095,542,832
66591.451095,542,836
66591.451095,542,832
66591.451095,542,832
66591.451095,541,836
66591.451095,540,832
66591.451095,540,832
66591.451095,540,836
66591.451095,540,832
66591.451095,540,832
66591.451095,540,836
66591.451095,540,832
66591.451095,540,832
66591.463716,540,836
66591.463716,540,832
66591.463716,540,832
66591.463716,540,836
66591.463716,540,832
66591.463716,540,832
66591.463716,540,836
66591.463716,540,832
66591.463716,539,836
66591.463716,540,832
66591.463716,541,832
66591.463716,542,836
66591.463716,542,832
66591.463716,542,832
66591.463716,541,836
66591.463716,541,832
66591.480159,541,832
66591.480159,541,836
66591.480159,540,832
66591.480159,540,832
66591.480159,540,836
66591.480159,541,832
66591.480159,542,832
66591.480159,541,836
66591.480159,541,832
66591.480159,542,832
66591.480159,541,836
66591.480159,541,832
66591.480159,541,832
66591.480159,542,836
66591.480159,543,832
66591.480159,543,832
66591.492866,543,836
66591.492866,544,832
66591.492866,544,832
66591.492866,544,836
66591.492866,544,832
66591.492866,544,832
66591.492866,544,836
66591.492866,543,832
66591.492866,543,832
66591.492866,543,836
66591.492866,543,832
66591.492866,543,836
66591.492866,544,832
66591.492866,543,832
66591.492866,543,836
66591.492866,543,832
66591.504204,542,832
66591.504204,543,836
66591.504204,543,832
66591.504204,543,832
66591.504204,543,836
66591.504204,543,832
66591.504204,543,832
66591.504204,543,836
66591.504204,543,832
66591.504204,543,832
66591.504204,543,836
66591.504204,543,832
66591.504204,544,832
66591.504204,544,836
66591.504204,544,832
66591.504204,545,832
66591.51707100001,545,836
66591.51707100001,545,832
66591.51707100001,545,832
66591.51707100001,544,836
66591.51707100001,545,832
66591.51707100001,545,832
66591.51707100001,546,836
66591.51707100001,547,832
66591.51707100001,548,832
66591.51707100001,549,836
66591.51707100001,549,832
66591.51707100001,549,848
66591.51707100001,549,820
66591.51707100001,549,832
66591.51707100001,550,836
66591.51707100001,550,832
66591.533647,551,832
66591.533647,551,836
66591.533647,551,832
66591.533647,552,832
66591.533647,552,836
66591.533647,553,832
66591.533647,554,832
66591.533647,554,836
66591.533647,554,832
66591.533647,555,832
66591.533647,556,836
66591.533647,557,832
66591.533647,557,832
66591.533647,558,836
66591.533647,559,832
66591.533647,559,832
66591.54513700001,559,836
66591.54513700001,559,832
66591.54513700001,559,832
66591.54513700001,560,836
66591.54513700001,561,832
66591.54513700001,562,832
66591.54513700001,562,836
66591.54513700001,562,832
66591.54513700001,563,832
66591.54513700001,563,836
66591.54513700001,563,832
66591.54513700001,564,836
66591.54513700001,565,832
66591.54513700001,566,832
66591.54513700001,566,836
66591.54513700001,566,832
66591.558117,567,832
66591.558117,568,836
66591.558117,569,832
66591.558117,570,832
66591.558117,570,836
66591.558117,571,832
66591.558117,572,832
66591.558117,572,836
66591.558117,572,832
66591.558117,574,832
66591.558117,575,836
66591.558117,577,832
66591.558117,579,832
66591.558117,582,836
66591.558117,585,832
66591.558117,588,832
66591.569522,590,836
66591.569522,591,832
66591.569522,592,832
66591.569522,592,836
66591.569522,591,832
66591.569522,590,832
66591.569522,589,836
66591.569522,588,832
66591.569522,587,832
66591.569522,587,836
66591.569522,586,832
66591.569522,586,836
66591.569522,585,832
66591.569522,585,832
66591.569522,585,836
66591.569522,584,832
66591.58609,582,832
66591.58609,581,836
66591.58609,580,832
66591.58609,578,832
66591.58609,577,836
66591.58609,576,832
66591.58609,574,832
66591.58609,571,836
66591.58609,568,832
66591.58609,564,832
66591.58609,561,836
66591.58609,559,832
66591.58609,556,832
66591.58609,554,836
66591.58609,551,832
66591.58609,548,832
66591.598949,546,836
66591.598949,544,832
66591.598949,543,832
66591.598949,541,836
66591.598949,538,832
66591.598949,536,832
66591.598949,533,836
66591.598949,530,832
66591.598949,527,836
66591.598949,526,832
66591.598949,524,832
66591.598949,522,836
66591.598949,519,832
66591.598949,517,832
66591.598949,515,836
66591.598949,512,832
66591.61117999999,510,832
66591.61117999999,507,836
66591.61117999999,505,832
66591.61117999999,502,832
66591.61117999999,499,836
66591.61117999999,495,832
66591.61117999999,491,832
66591.61117999999,488,836
66591.61117999999,484,832
66591.61117999999,480,832
66591.61117999999,476,836
66591.61117999999,472,832
66591.61117999999,467,832
66591.61117999999,463,836
66591.61117999999,459,832
66591.61117999999,456,832
66591.623765,452,836
66591.623765,449,832
66591.623765,445,832
66591.623765,442,836
66591.623765,439,832
66591.623765,436,832
66591.623765,432,836
66591.623765,428,832
66591.623765,423,832
66591.623765,420,836
66591.623765,416,832
66591.623765,411,836
66591.623765,408,832
66591.623765,404,832
66591.623765,400,836
66591.623765,397,832
66591.636324,393,832
66591.636324,389,836
66591.636324,386,832
66591.636324,383,832
66591.636324,380,836
66591.636324,377,832
66591.636324,374,832
66591.636324,371,836
66591.636324,368,832
66591.636324,365,832
66591.636324,362,836
66591.636324,358,832
66591.636324,355,832
66591.636324,351,836
66591.636324,347,832
66591.636324,342,832
66591.652627,338,836
66591.652627,333,832
66591.652627,329,832
66591.652627,324,836
66591.652627,319,832
66591.652627,314,832
66591.652627,309,836
66591.652627,306,832
66591.652627,302,832
66591.652627,297,836
66591.652627,294,832
66591.652627,290,836
66591.652627,286,832
66591.652627,282,832
66591.652627,279,836
66591.652627,275,832
66591.663885,271,832
66591.663885,268,836
66591.663885,264,832
66591.663885,261,832
66591.663885,257,836
66591.663885,253,832
66591.663885,249,832
66591.663885,245,836
66591.663885,241,832
66591.663885,236,832
66591.663885,233,836
66591.663885,228,832
66591.663885,225,832
66591.663885,221,836
66591.663885,218,832
66591.663885,215,832
66591.676538,211,836
66591.676538,207,832
66591.676538,204,832
66591.676538,201,836
66591.676538,198,832
66591.676538,194,832
66591.676538,191,836
66591.676538,188,836
66591.676538,185,832
66591.676538,182,832
66591.676538,179,832
66591.676538,176,836
66591.676538,174,832
66591.676538,171,832
66591.676538,169,836
66591.676538,167,832
66591.689241,164,832
66591.689241,162,836
66591.689241,160,832
66591.689241,158,832
66591.689241,156,836
66591.689241,153,832
66591.689241,151,832
66591.689241,148,836
66591.689241,146,832
66591.689241,145,832
66591.689241,143,836
66591.689241,140,832
66591.689241,137,832
66591.689241,135,836
66591.689241,132,832
66591.689241,130,832
66591.704619,128,836
66591.704619,126,832
66591.704619,125,832
66591.704619,122,836
66591.704619,121,832
66591.704619,119,832
66591.704619,118,836
66591.704619,116,832
66591.704619,115,836
66591.704619,113,832
66591.704619,112,832
66591.704619,111,836
66591.704619,109,832
66591.704619,107,832
66591.704619,105,836
66591.704619,104,832
66591.72199199999,102,832
66591.72199199999,100,836
66591.72199199999,98,832
66591.72199199999,96,836
66591.72199199999,93,832
66591.72199199999,91,832
66591.72199199999,90,832
66591.72199199999,88,836
66591.72199199999,86,832
66591.72199199999,85,840
66591.72199199999,83,832
66591.72199199999,82,832
66591.72199199999,80,832
66591.72199199999,79,832
66591.72199199999,78,832
66591.72199199999,77,832
66591.72199199999,75,836
66591.72199199999,74,832
66591.72199199999,72,832
66591.734556,71,836
66591.734556,70,836
66591.734556,68,828
66591.734556,67,836
66591.734556,67,832
66591.734556,66,836
66591.734556,65,840
66591.734556,64,832
66591.734556,63,832
66591.734556,62,832
66591.734556,61,828
66591.734556,61,836
66591.734556,60,832
66591.734556,60,832
66591.734556,60,836
66591.734556,60,832
66591.734556,59,832
66591.734556,57,840
66591.74984399999,56,828
66591.74984399999,56,832
66591.74984399999,56,836
66591.74984399999,57,832
66591.74984399999,56,840
66591.74984399999,55,828
66591.74984399999,55,832
66591.74984399999,55,832
66591.74984399999,55,836
66591.74984399999,55,832
66591.74984399999,54,832
66591.74984399999,54,836
66591.74984399999,53,832
66591.74984399999,53,832
66591.74984399999,53,836
66591.74984399999,53,836
66591.74984399999,53,828
66591.74984399999,54,836
66591.766247,53,832
66591.766247,54,832
66591.766247,54,840
66591.766247,53,828
66591.766247,54,836
66591.766247,53,832
66591.766247,54,832
66591.766247,54,836
66591.766247,54,832
66591.766247,55,832
66591.766247,55,836
66591.766247,55,832
66591.766247,55,832
66591.766247,56,840
66591.766247,56,828
66591.766247,56,832
66591.766247,55,836
66591.766247,55,832
66591.782708,54,840
66591.782708,55,828
66591.782708,56,832
66591.782708,57,832
66591.782708,57,836
66591.782708,58,832
66591.782708,59,832
66591.782708,59,836
66591.782708,59,832
66591.782708,59,832
66591.782708,60,836
66591.782708,61,836
66591.782708,62,828
66591.782708,63,836
66591.782708,64,832
66591.782708,65,832
66591.782708,65,844
66591.782708,66,824
66591.782708,67,836
66591.795296,68,832
66591.795296,68,832
66591.795296,69,836
66591.795296,70,832
66591.795296,71,832
66591.795296,72,836
66591.795296,73,832
66591.795296,74,832
66591.795296,75,840
66591.795296,75,828
66591.795296,77,832
66591.795296,78,836
66591.795296,80,832
66591.795296,81,836
66591.795296,83,836
66591.795296,84,832
66591.795296,85,832
66591.795296,86,832
66591.808037,88,832
66591.808037,89,832
66591.808037,90,836
66591.808037,92,832
66591.808037,92,832
66591.808037,93,836
66591.808037,95,836
66591.808037,96,828
66591.808037,97,836
66591.808037,99,832
66591.808037,100,832
66591.808037,100,836
66591.808037,102,832
66591.808037,104,836
66591.808037,105,832
66591.808037,106,832
66591.808037,107,836
66591.824366,108,832
66591.824366,109,832
66591.824366,110,836
66591.824366,111,832
66591.824366,112,832
66591.824366,112,836
66591.824366,114,832
66591.824366,115,832
66591.824366,116,836
66591.824366,117,832
66591.824366,117,832
66591.824366,118,836
66591.824366,119,832
66591.824366,120,832
66591.824366,122,836
66591.824366,123,832
66591.837233,124,832
66591.837233,125,836
66591.837233,125,832
66591.837233,126,832
66591.837233,127,836
66591.837233,128,832
66591.837233,128,832
66591.837233,129,836
66591.837233,131,832
66591.837233,131,836
66591.837233,133,832
66591.837233,134,832
66591.837233,136,836
66591.837233,137,832
66591.837233,139,832
66591.837233,140,836
66591.848697,140,832
66591.848697,140,832
66591.848697,140,836
66591.848697,141,832
66591.848697,141,832
66591.848697,140,836
66591.848697,139,832
66591.848697,139,832
66591.848697,138,836
66591.848697,137,832
66591.848697,137,832
66591.848697,138,836
66591.848697,138,832
66591.848697,137,832
66591.848697,137,836
66591.848697,137,832
66591.86543,137,832
66591.86543,138,836
66591.86543,138,832
66591.86543,138,832
66591.86543,139,836
66591.86543,139,832
66591.86543,139,832
66591.86543,140,836
66591.86543,141,832
66591.86543,141,836
66591.86543,142,832
66591.86543,142,832
66591.86543,144,836
66591.86543,144,832
66591.86543,145,832
66591.86543,146,840
66591.876892,147,828
66591.876892,148,832
66591.876892,149,836
66591.876892,149,832
66591.876892,150,832
66591.876892,151,836
66591.876892,152,832
66591.876892,152,832
66591.876892,153,836
66591.876892,153,832
66591.876892,153,832
66591.876892,153,836
66591.876892,154,832
66591.876892,155,832
66591.876892,155,836
66591.876892,156,832
66591.889548,157,832
66591.889548,157,836
66591.889548,158,832
66591.889548,158,832
66591.889548,159,836
66591.889548,159,832
66591.889548,160,832
66591.889548,161,836
66591.889548,162,832
66591.889548,163,832
66591.889548,164,836
66591.889548,165,832
66591.889548,166,836
66591.889548,167,832
66591.889548,168,832
66591.889548,168,836
66591.902173,169,832
66591.902173,171,832
66591.902173,172,836
66591.902173,173,832
66591.902173,174,832
66591.902173,175,836
66591.902173,176,832
66591.902173,177,832
66591.902173,179,836
66591.902173,180,832
66591.902173,181,832
66591.902173,182,836
66591.902173,183,832
66591.902173,185,832
66591.902173,186,836
66591.902173,187,832
66591.918677,189,832
66591.918677,189,836
66591.918677,191,832
66591.918677,192,832
66591.918677,192,836
66591.918677,194,832
66591.918677,195,832
66591.918677,196,836
66591.918677,198,832
66591.918677,198,832
66591.918677,200,836
66591.918677,201,832
66591.918677,202,836
66591.918677,203,832
66591.918677,203,832
66591.918677,204,836
66591.931375,205,832
66591.931375,206,832
66591.931375,206,836
66591.931375,206,832
66591.931375,207,832
66591.931375,206,836
66591.931375,207,832
66591.931375,208,832
66591.931375,208,836
66591.931375,209,832
66591.931375,209,832
66591.931375,209,836
66591.931375,209,832
66591.931375,210,832
66591.931375,210,836
66591.931375,210,832
66591.942732,209,832
66591.942732,209,836
66591.942732,210,832
66591.942732,210,832
66591.942732,210,836
66591.942732,211,832
66591.942732,211,832
66591.942732,211,836
66591.942732,213,832
66591.942732,216,836
66591.942732,217,832
66591.942732,217,832
66591.942732,218,836
66591.942732,219,832
66591.942732,219,832
66591.942732,220,836
66591.959147,221,832
66591.959147,222,832
66591.959147,222,836
66591.959147,223,832
66591.959147,224,832
66591.959147,225,836
66591.959147,226,832
66591.959147,227,832
66591.959147,229,836
66591.959147,229,832
66591.959147,230,832
66591.959147,231,836
66591.959147,231,832
66591.959147,232,832
66591.959147,232,836
66591.959147,232,832
66591.97175699999,232,832
66591.97175699999,233,836
66591.97175699999,234,832
66591.97175699999,234,832
66591.97175699999,235,836
66591.97175699999,236,832
66591.97175699999,236,832
66591.97175699999,237,836
66591.97175699999,238,832
66591.97175699999,239,832
66591.97175699999,239,836
66591.97175699999,240,832
66591.97175699999,241,836
66591.97175699999,242,832
66591.97175699999,243,832
66591.97175699999,244,836
66591.984433,245,832
66591.984433,245,832
66591.984433,246,836
66591.984433,247,832
66591.984433,248,832
66591.984433,248,836
66591.984433,249,832
66591.984433,249,832
66591.984433,250,836
66591.984433,250,832
66591.984433,252,832
66591.984433,253,836
66591.984433,254,832
66591.984433,254,832
66591.984433,255,836
66591.984433,257,832
66591.996006,258,832
66591.996006,259,836
66591.996006,260,832
66591.996006,261,832
66591.996006,262,836
66591.996006,264,832
66591.996006,265,832
66591.996006,266,836
66591.996006,267,832
66591.996006,268,832
66591.996006,269,836
66591.996006,270,832
66591.996006,270,836
66591.996006,271,832
66591.996006,272,832
66591.996006,272,836
66592.012603,272,832
66592.012603,273,832
66592.012603,274,836
66592.012603,275,832
66592.012603,275,832
66592.012603,276,836
66592.012603,276,832
66592.012603,277,832
66592.012603,277,836
66592.012603,278,832
66592.012603,279,832
66592.012603,279,836
66592.012603,280,832
66592.012603,282,832
66592.012603,283,836
66592.012603,283,832
66592.02526699999,284,832
66592.02526699999,284,836
66592.02526699999,284,832
66592.02526699999,285,832
66592.02526699999,286,836
66592.02526699999,286,832
66592.02526699999,287,832
66592.02526699999,288,836
66592.02526699999,288,832
66592.02526699999,288,836
66592.02526699999,289,832
66592.02526699999,290,836
66592.02526699999,291,832
66592.02526699999,292,832
66592.02526699999,292,832
66592.02526699999,292,836
66592.037113,293,832
66592.037113,294,832
66592.037113,294,836
66592.037113,295,832
66592.037113,296,832
66592.037113,298,836
66592.037113,299,832
66592.037113,299,832
66592.037113,299,836
66592.037113,300,832
66592.037113,300,832
66592.037113,301,836
66592.037113,302,832
66592.037113,302,832
66592.037113,302,836
66592.037113,303,832
66592.049326,303,832
66592.049326,304,836
66592.049326,305,832
66592.049326,305,832
66592.049326,306,836
66592.049326,306,832
66592.049326,307,832
66592.049326,308,836
66592.049326,308,832
66592.049326,309,832
66592.049326,309,836
66592.049326,310,832
66592.049326,311,836
66592.049326,312,832
66592.049326,313,832
66592.049326,313,836
66592.06579,313,832
66592.06579,314,832
66592.06579,314,836
66592.06579,315,832
66592.06579,315,832
66592.06579,316,836
66592.06579,316,832
66592.06579,316,832
66592.06579,317,836
66592.06579,318,832
66592.06579,318,832
66592.06579,319,836
66592.06579,318,832
66592.06579,319,832
66592.06579,319,836
66592.06579,319,832
66592.078439,319,832
66592.078439,319,836
66592.078439,319,832
66592.078439,321,832
66592.078439,322,836
66592.078439,322,832
66592.078439,323,832
66592.078439,324,836
66592.078439,325,832
66592.078439,325,832
66592.078439,325,836
66592.078439,326,832
66592.078439,327,836
66592.078439,328,832
66592.078439,328,832
66592.078439,328,836
66592.090083,329,832
66592.090083,329,832
66592.090083,330,836
66592.090083,330,832
66592.090083,330,832
66592.090083,331,836
66592.090083,331,832
66592.090083,331,832
66592.090083,332,836
66592.090083,333,832
66592.090083,333,832
66592.090083,334,836
66592.090083,334,832
66592.090083,334,832
66592.090083,335,836
66592.090083,335,832
66592.103025,336,832
66592.103025,336,836
66592.103025,337,832
66592.103025,337,832
66592.103025,338,836
66592.103025,339,832
66592.103025,339,832
66592.103025,339,836
66592.103025,339,832
66592.103025,339,836
66592.103025,340,832
66592.103025,340,832
66592.103025,340,836
66592.103025,341,832
66592.103025,341,832
66592.103025,342,836
66592.119606,342,832
66592.119606,343,832
66592.119606,343,836
66592.119606,344,832
66592.119606,344,832
66592.119606,344,836
66592.119606,345,832
66592.119606,345,832
66592.119606,346,836
66592.119606,346,832
66592.119606,347,832
66592.119606,347,836
66592.119606,348,832
66592.119606,348,832
66592.119606,347,836
66592.119606,348,832
66592.131033,348,832
66592.131033,349,836
66592.131033,349,832
66592.131033,349,832
66592.131033,349,836
66592.131033,349,832
66592.131033,350,832
66592.131033,350,836
66592.131033,351,832
66592.131033,352,836
66592.131033,352,832
66592.131033,354,832
66592.131033,354,836
66592.131033,355,832
66592.131033,355,832
66592.131033,355,836
66592.143667,356,832
66592.143667,356,832
66592.143667,356,836
66592.143667,356,832
66592.143667,355,832
66592.143667,355,836
66592.143667,355,832
66592.143667,355,832
66592.143667,355,836
66592.143667,355,832
66592.143667,355,832
66592.143667,356,836
66592.143667,356,832
66592.143667,356,832
66592.143667,356,836
66592.143667,357,832
66592.156717,357,832
66592.156717,357,836
66592.156717,358,832
66592.156717,359,832
66592.156717,359,836
66592.156717,359,832
66592.156717,360,832
66592.156717,360,836
66592.156717,362,832
66592.156717,362,832
66592.156717,363,836
66592.156717,363,832
66592.156717,364,836
66592.156717,365,832
66592.156717,365,832
66592.156717,365,836
66592.168997,365,832
66592.168997,366,832
66592.168997,366,836
66592.168997,367,832
66592.168997,368,832
66592.168997,367,836
66592.168997,368,832
66592.168997,368,832
66592.168997,369,836
66592.168997,368,832
66592.168997,369,832
66592.168997,369,836
66592.168997,370,832
66592.168997,371,832
66592.168997,371,836
66592.168997,370,832
66592.18408600001,370,832
66592.18408600001,371,836
66592.18408600001,372,832
66592.18408600001,372,832
66592.18408600001,373,836
66592.18408600001,373,832
66592.18408600001,374,832
66592.18408600001,374,836
66592.18408600001,374,832
66592.18408600001,375,832
66592.18408600001,376,836
66592.18408600001,376,832
66592.18408600001,377,836
66592.18408600001,378,832
66592.18408600001,377,832
66592.18408600001,377,836
66592.196798,378,832
66592.196798,378,832
66592.196798,378,836
66592.196798,378,832
66592.196798,378,832
66592.196798,378,836
66592.196798,378,832
66592.196798,378,832
66592.196798,378,836
66592.196798,378,832
66592.196798,379,832
66592.196798,379,836
66592.196798,380,832
66592.196798,380,832
66592.196798,380,836
66592.196798,380,832
66592.209797,380,832
66592.209797,381,836
66592.209797,381,832
66592.209797,381,832
66592.209797,382,836
66592.209797,382,832
66592.209797,382,832
66592.209797,382,836
66592.209797,384,832
66592.209797,385,832
66592.209797,386,836
66592.209797,387,832
66592.209797,386,836
66592.209797,387,832
66592.209797,387,832
66592.209797,387,836
66592.22127000001,388,832
66592.22127000001,388,832
66592.22127000001,389,840
66592.22127000001,389,828
66592.22127000001,389,832
66592.22127000001,389,836
66592.22127000001,389,832
66592.22127000001,390,832
66592.22127000001,389,836
66592.22127000001,389,832
66592.22127000001,390,832
66592.22127000001,390,836
66592.22127000001,390,832
66592.22127000001,390,832
66592.22127000001,390,836
66592.22127000001,391,832
66592.237687,391,832
66592.237687,392,836
66592.237687,392,832
66592.237687,392,832
66592.237687,392,836
66592.237687,392,832
66592.237687,392,832
66592.237687,392,836
66592.237687,393,832
66592.237687,393,832
66592.237687,394,836
66592.237687,395,832
66592.237687,395,836
66592.237687,396,832
66592.237687,396,832
66592.237687,396,836
66592.2501,397,832
66592.2501,397,832
66592.2501,396,836
66592.2501,397,832
66592.2501,397,832
66592.2501,398,836
66592.2501,398,832
66592.2501,399,832
66592.2501,399,836
66592.2501,400,832
66592.2501,400,832
66592.2501,400,836
66592.2501,401,832
66592.2501,401,832
66592.2501,402,836
66592.2501,402,832
66592.262844,402,832
66592.262844,402,836
66592.262844,403,832
66592.262844,403,832
66592.262844,404,836
66592.262844,403,832
66592.262844,404,832
66592.262844,404,836
66592.262844,405,832
66592.262844,405,832
66592.262844,406,836
66592.262844,406,832
66592.262844,406,836
66592.262844,407,832
66592.262844,407,832
66592.262844,407,836
66592.274305,408,832
66592.274305,408,832
66592.274305,408,836
66592.274305,408,832
66592.274305,409,832
66592.274305,409,836
66592.274305,409,832
66592.274305,411,832
66592.274305,411,836
66592.274305,413,832
66592.274305,413,832
66592.274305,414,836
66592.274305,415,832
66592.274305,415,832
66592.274305,416,836
66592.274305,416,832
66592.290826,416,832
66592.290826,416,836
66592.290826,416,832
66592.290826,416,832
66592.290826,417,836
66592.290826,417,832
66592.290826,419,832
66592.290826,420,836
66592.290826,421,832
66592.290826,423,832
66592.290826,424,836
66592.290826,426,832
66592.290826,427,836
66592.290826,429,832
66592.290826,430,832
66592.290826,432,836
66592.303495,433,832
66592.303495,434,832
66592.303495,435,836
66592.303495,436,832
66592.303495,437,832
66592.303495,438,836
66592.303495,440,832
66592.303495,440,832
66592.303495,441,836
66592.303495,443,832
66592.303495,446,832
66592.303495,448,836
66592.303495,451,832
66592.303495,455,832
66592.303495,459,836
66592.303495,463,832
66592.316171,467,832
66592.316171,472,836
66592.316171,477,832
66592.316171,482,832
66592.316171,488,836
66592.316171,494,832
66592.316171,501,832
66592.316171,507,836
66592.316171,513,832
66592.316171,519,836
66592.316171,525,832
66592.316171,530,832
66592.316171,536,836
66592.316171,542,832
66592.316171,548,832
66592.316171,554,836
66592.332628,561,832
66592.332628,568,832
66592.332628,576,836
66592.332628,583,832
66592.332628,590,832
66592.332628,597,836
66592.332628,604,832
66592.332628,611,832
66592.332628,619,836
66592.332628,625,832
66592.332628,633,832
66592.332628,639,836
66592.332628,645,832
66592.332628,652,832
66592.332628,660,836
66592.332628,668,832
66592.344089,675,832
66592.344089,683,836
66592.344089,691,832
66592.344089,698,832
66592.344089,704,836
66592.344089,711,832
66592.344089,718,832
66592.344089,725,836
66592.344089,732,832
66592.344089,738,832
66592.344089,745,836
66592.344089,753,832
66592.344089,759,836
66592.344089,766,832
66592.344089,772,832
66592.344089,779,836
66592.35686500001,786,832
66592.35686500001,792,832
66592.35686500001,797,836
66592.35686500001,802,832
66592.35686500001,808,832
66592.35686500001,814,836
66592.35686500001,819,832
66592.35686500001,824,832
66592.35686500001,830,836
66592.35686500001,835,832
66592.35686500001,839,832
66592.35686500001,846,836
66592.35686500001,852,832
66592.35686500001,859,832
66592.35686500001,864,836
66592.35686500001,868,832
66592.369789,872,832
66592.369789,877,836
66592.369789,881,832
66592.369789,886,832
66592.369789,889,836
66592.369789,892,832
66592.369789,894,832
66592.369789,898,836
66592.369789,901,832
66592.369789,904,836
66592.369789,908,832
66592.369789,911,832
66592.369789,915,836
66592.369789,918,832
66592.369789,920,836
66592.369789,922,832
66592.384942,924,832
66592.384942,925,832
66592.384942,927,836
66592.384942,928,832
66592.384942,929,832
66592.384942,930,836
66592.384942,931,832
66592.384942,932,832
66592.384942,933,836
66592.384942,933,832
66592.384942,933,832
66592.384942,933,836
66592.384942,933,832
66592.384942,933,832
66592.384942,933,836
66592.384942,932,832
66592.397795,931,832
66592.397795,931,836
66592.397795,929,832
66592.397795,929,832
66592.397795,928,836
66592.397795,926,832
66592.397795,924,832
66592.397795,923,836
66592.397795,922,832
66592.397795,920,832
66592.397795,920,836
66592.397795,917,832
66592.397795,915,836
66592.397795,912,832
66592.397795,910,832
66592.397795,908,836
66592.410494,905,832
66592.410494,903,832
66592.410494,901,836
66592.410494,898,832
66592.410494,895,832
66592.410494,892,836
66592.410494,889,832
66592.410494,886,832
66592.410494,883,836
66592.410494,881,832
66592.410494,878,832
66592.410494,875,836
66592.410494,872,832
66592.410494,870,832
66592.410494,868,836
66592.410494,866,832
66592.426993,865,832
66592.426993,863,836
66592.426993,861,832
66592.426993,859,832
66592.426993,857,836
66592.426993,854,832
66592.426993,853,832
66592.426993,851,836
66592.426993,849,832
66592.426993,848,836
66592.426993,846,832
66592.426993,844,832
66592.426993,843,836
66592.426993,842,832
66592.426993,840,832
66592.426993,839,836
66592.438329,837,832
66592.438329,836,832
66592.438329,834,836
66592.438329,833,832
66592.438329,831,832
66592.438329,829,836
66592.438329,828,832
66592.438329,827,832
66592.438329,826,836
66592.438329,824,832
66592.438329,822,832
66592.438329,821,836
66592.438329,820,832
66592.438329,819,832
66592.438329,817,836
66592.438329,816,832
66592.451016,815,832
66592.451016,813,836
66592.451016,812,832
66592.451016,811,832
66592.451016,810,836
66592.451016,808,832
66592.451016,807,832
66592.451016,806,836
66592.451016,804,832
66592.451016,802,832
66592.451016,801,836
66592.451016,800,832
66592.451016,799,836
66592.451016,798,832
66592.451016,797,832
66592.451016,797,836
66592.463542,796,832
66592.463542,795,832
66592.463542,793,836
66592.463542,791,832
66592.463542,789,832
66592.463542,788,836
66592.463542,787,832
66592.463542,785,832
66592.463542,784,836
66592.463542,784,832
66592.463542,783,832
66592.463542,783,836
66592.463542,782,832
66592.463542,781,832
66592.463542,781,836
66592.463542,781,832
66592.480099,780,832
66592.480099,779,836
66592.480099,778,832
66592.480099,778,832
66592.480099,778,836
66592.480099,777,832
66592.480099,777,832
66592.480099,776,836
66592.480099,776,832
66592.480099,775,836
66592.480099,774,832
66592.480099,773,832
66592.480099,772,836
66592.480099,772,832
66592.480099,772,832
66592.480099,771,836
66592.491455,771,832
66592.491455,771,832
66592.491455,771,836
66592.491455,771,832
66592.491455,770,832
66592.491455,769,836
66592.491455,768,832
66592.491455,767,832
66592.491455,766,836
66592.491455,766,832
66592.491455,765,832
66592.491455,764,836
66592.491455,764,832
66592.491455,763,832
66592.491455,762,836
66592.491455,761,832
66592.503993,761,832
66592.503993,760,836
66592.503993,759,832
66592.503993,758,832
66592.503993,757,836
66592.503993,756,832
66592.503993,755,832
66592.503993,754,836
66592.503993,754,832
66592.503993,754,832
66592.503993,754,836
66592.503993,753,832
66592.503993,753,836
66592.503993,753,832
66592.503993,752,832
66592.503993,752,836
66592.520393,751,832
66592.520393,751,832
66592.520393,750,836
66592.520393,750,832
66592.520393,749,832
66592.520393,748,836
66592.520393,748,832
66592.520393,748,832
66592.520393,748,836
66592.520393,748,832
66592.520393,747,832
66592.520393,748,836
66592.520393,747,832
66592.520393,747,832
66592.520393,747,836
66592.520393,747,832
66592.533105,747,832
66592.533105,747,836
66592.533105,748,832
66592.533105,749,832
66592.533105,749,836
66592.533105,749,832
66592.533105,750,832
66592.533105,750,836
66592.533105,749,832
66592.533105,749,832
66592.533105,750,836
66592.533105,750,832
66592.533105,751,836
66592.533105,752,832
66592.533105,752,832
66592.533105,753,836
66592.544509,754,832
66592.544509,755,832
66592.544509,756,836
66592.544509,757,832
66592.544509,758,832
66592.544509,759,836
66592.544509,760,832
66592.544509,761,832
66592.544509,761,836
66592.544509,762,832
66592.544509,762,832
66592.544509,763,836
66592.544509,762,832
66592.544509,763,832
66592.544509,763,836
66592.544509,764,832
66592.557217,764,832
66592.557217,765,836
66592.557217,765,832
66592.557217,765,832
66592.557217,765,836
66592.557217,766,832
66592.557217,769,832
66592.557217,773,836
66592.557217,773,832
66592.557217,772,832
66592.557217,770,836
66592.557217,771,832
66592.557217,770,836
66592.557217,769,832
66592.557217,768,832
66592.557217,768,836
66592.56984,766,832
66592.56984,765,832
66592.56984,764,836
66592.56984,764,832
66592.56984,763,832
66592.56984,763,840
66592.56984,764,828
66592.56984,765,832
66592.56984,765,836
66592.56984,763,832
66592.56984,765,832
66592.56984,768,836
66592.56984,773,832
66592.56984,776,832
66592.56984,777,836
66592.56984,777,832
66592.58655200001,782,832
66592.58655200001,788,836
66592.58655200001,791,832
66592.58655200001,790,832
66592.58655200001,790,836
66592.58655200001,790,832
66592.58655200001,792,832
66592.58655200001,793,836
66592.58655200001,795,832
66592.58655200001,802,832
66592.58655200001,806,836
66592.58655200001,811,832
66592.58655200001,815,836
66592.58655200001,819,832
66592.58655200001,824,832
66592.58655200001,828,836
66592.597961,832,832
66592.597961,836,832
66592.597961,841,836
66592.597961,845,832
66592.597961,851,832
66592.597961,858,836
66592.597961,867,832
66592.597961,877,832
66592.597961,888,836
66592.597961,893,832
66592.597961,897,832
66592.597961,904,836
66592.597961,912,832
66592.597961,920,832
66592.597961,930,836
66592.597961,938,832
66592.610618,945,832
66592.610618,955,836
66592.610618,964,832
66592.610618,971,832
66592.610618,975,836
66592.610618,977,832
66592.610618,984,832
66592.610618,992,836
66592.610618,999,832
66592.610618,1002,832
66592.610618,1007,836
66592.610618,1012,832
66592.610618,1018,836
66592.610618,1023,832
66592.610618,1023,832
66592.622212,1023,836
66592.622212,1023,832
66592.622212,1023,832
66592.622212,1023,836
66592.622212,1023,832
66592.622212,1023,832
66592.622212,1023,836
66592.622212,1023,832
66592.622212,1023,832
66592.622212,1023,836
66592.622212,1023,832
66592.622212,1023,832
66592.622212,1023,836
66592.622212,1023,832
66592.622212,1023,832
66592.635154,1023,836
66592.635154,1023,832
66592.635154,1023,832
66592.635154,1023,836
66592.635154,1023,832
66592.635154,1023,832
66592.635154,1023,836
66592.635154,1023,832
66592.635154,1023,832
66592.635154,1023,836
66592.635154,1023,832
66592.635154,1023,832
66592.635154,1023,836
66592.635154,1023,832
66592.647925,1022,836
66592.647925,1023,832
66592.647925,1023,832
66592.647925,1023,836
66592.647925,1023,832
66592.647925,1023,832
66592.647925,1023,836
66592.647925,1023,832
66592.647925,1023,832
66592.647925,1023,836
66592.647925,1023,832
66592.647925,1023,832
66592.647925,1023,836
66592.647925,1023,832
66592.659288,1023,832
66592.659288,1023,836
66592.659288,1023,832
66592.659288,1023,832
66592.659288,1023,836
66592.659288,1023,832
66592.659288,1023,832
66592.659288,1023,836
66592.659288,1023,832
66592.659288,1023,832
66592.659288,1023,836
66592.659288,1023,832
66592.659288,1023,832
66592.659288,1023,836
66592.671956,1023,832
66592.671956,1023,832
66592.671956,1023,836
66592.671956,1023,832
66592.671956,1023,836
66592.671956,1022,832
66592.671956,1023,832
66592.671956,1022,836
66592.671956,1021,832
66592.671956,1020,832
66592.671956,1018,836
66592.671956,1016,832
66592.671956,1014,832
66592.671956,1011,836
66592.684782,1008,832
66592.684782,1006,832
66592.684782,1003,836
66592.684782,1000,832
66592.684782,997,832
66592.684782,993,836
66592.684782,989,832
66592.684782,985,832
66592.684782,981,836
66592.684782,978,832
66592.684782,973,832
66592.684782,969,836
66592.684782,965,832
66592.684782,960,832
66592.684782,955,836
66592.684782,949,832
66592.69704900001,944,832
66592.69704900001,939,836
66592.69704900001,934,832
66592.69704900001,930,832
66592.69704900001,924,836
66592.69704900001,918,832
66592.69704900001,912,836
66592.69704900001,906,832
66592.69704900001,899,832
66592.69704900001,893,836
66592.69704900001,887,832
66592.69704900001,881,832
66592.69704900001,873,836
66592.69704900001,867,832
66592.69704900001,859,832
66592.69704900001,852,836
66592.70844,846,832
66592.70844,840,832
66592.70844,833,836
66592.70844,826,832
66592.70844,819,832
66592.70844,813,836
66592.70844,807,832
66592.70844,801,832
66592.70844,794,836
66592.70844,788,832
66592.70844,781,832
66592.70844,774,836
66592.70844,768,832
66592.70844,761,832
66592.70844,754,836
66592.70844,748,832
66592.721136,743,832
66592.721136,736,836
66592.721136,730,832
66592.721136,725,832
66592.721136,719,836
66592.721136,713,832
66592.721136,707,836
66592.721136,701,832
66592.721136,695,832
66592.721136,690,836
66592.721136,685,832
66592.721136,680,844
66592.721136,675,824
66592.721136,670,832
66592.721136,665,832
66592.721136,660,836
66592.737628,655,832
66592.737628,650,832
66592.737628,645,836
66592.737628,640,832
66592.737628,636,832
66592.737628,632,836
66592.737628,628,832
66592.737628,624,832
66592.737628,621,836
66592.737628,617,832
66592.737628,613,832
66592.737628,609,836
66592.737628,604,832
66592.737628,600,832
66592.737628,595,836
66592.737628,591,832
66592.750308,587,832
66592.750308,583,836
66592.750308,580,832
66592.750308,576,836
66592.750308,572,832
66592.750308,568,832
66592.750308,565,836
66592.750308,562,832
66592.750308,558,832
66592.750308,555,836
66592.750308,551,832
66592.750308,547,832
66592.750308,544,836
66592.750308,541,832
66592.750308,538,832
66592.750308,534,836
66592.761764,531,832
66592.761764,528,832
66592.761764,525,836
66592.761764,523,832
66592.761764,520,832
66592.761764,518,836
66592.761764,516,832
66592.761764,514,832
66592.761764,512,836
66592.761764,509,832
66592.761764,507,832
66592.761764,504,836
66592.761764,502,832
66592.761764,500,832
66592.761764,498,836
66592.761764,495,832
66592.774421,493,832
66592.774421,491,836
66592.774421,488,832
66592.774421,487,836
66592.774421,486,832
66592.774421,485,832
66592.774421,483,836
66592.774421,481,832
66592.774421,480,832
66592.774421,478,836
66592.774421,477,832
66592.774421,476,832
66592.774421,475,836
66592.774421,474,832
66592.774421,472,832
66592.774421,470,836
66592.791214,468,832
66592.791214,466,832
66592.791214,465,836
66592.791214,463,832
66592.791214,462,832
66592.791214,461,836
66592.791214,460,832
66592.791214,459,832
66592.791214,458,836
66592.791214,457,832
66592.791214,457,832
66592.791214,455,836
66592.791214,454,832
66592.791214,452,832
66592.791214,451,836
66592.791214,450,832
66592.802713,449,832
66592.802713,448,836
66592.802713,447,832
66592.802713,446,836
66592.802713,444,832
66592.802713,443,832
66592.802713,442,836
66592.802713,442,832
66592.802713,441,832
66592.802713,441,836
66592.802713,441,832
66592.802713,441,832
66592.802713,441,836
66592.802713,441,832
66592.802713,441,832
66592.802713,441,836
66592.81563099999,440,832
66592.81563099999,440,832
66592.81563099999,439,836
66592.81563099999,438,832
66592.81563099999,438,832
66592.81563099999,438,836
66592.81563099999,437,832
66592.81563099999,436,832
66592.81563099999,436,836
66592.81563099999,435,832
66592.81563099999,435,832
66592.81563099999,434,836
66592.81563099999,433,832
66592.81563099999,432,832
66592.81563099999,432,836
66592.81563099999,432,832
66592.82713,431,832
66592.82713,430,836
66592.82713,430,832
66592.82713,429,832
66592.82713,428,836
66592.82713,428,832
66592.82713,428,836
66592.82713,428,832
66592.82713,428,832
66592.82713,428,836
66592.82713,427,832
66592.82713,426,832
66592.82713,427,836
66592.82713,427,832
66592.82713,426,832
66592.82713,425,836
66592.84357900001,425,832
66592.84357900001,424,832
66592.84357900001,424,836
66592.84357900001,425,832
66592.84357900001,424,832
66592.84357900001,424,836
66592.84357900001,423,832
66592.84357900001,423,832
66592.84357900001,423,836
66592.84357900001,423,832
66592.84357900001,423,832
66592.84357900001,422,836
66592.84357900001,422,832
66592.84357900001,422,832
66592.84357900001,423,836
66592.84357900001,423,832
66592.856218,422,832
66592.856218,423,836
66592.856218,423,832
66592.856218,422,832
66592.856218,422,836
66592.856218,423,832
66592.856218,422,836
66592.856218,422,832
66592.856218,422,832
66592.856218,422,836
66592.856218,422,832
66592.856218,422,832
66592.856218,422,836
66592.856218,421,832
66592.856218,421,832
66592.856218,422,836
66592.868973,422,832
66592.868973,422,832
66592.868973,421,836
66592.868973,421,832
66592.868973,422,832
66592.868973,422,836
66592.868973,422,832
66592.868973,422,832
66592.868973,421,836
66592.868973,421,832
66592.868973,421,832
66592.868973,421,836
66592.868973,421,832
66592.868973,421,832
66592.868973,421,836
66592.868973,421,832
66592.880613,421,832
66592.880613,421,836
66592.880613,422,832
66592.880613,423,832
66592.880613,424,836
66592.880613,424,832
66592.880613,423,836
66592.880613,423,832
66592.880613,424,832
66592.880613,424,836
66592.880613,423,832
66592.880613,423,832
66592.880613,422,836
66592.880613,421,832
66592.880613,420,832
66592.880613,420,836
66592.893035,419,832
66592.893035,419,832
66592.893035,420,836
66592.893035,421,832
66592.893035,422,832
66592.893035,423,836
66592.893035,423,832
66592.893035,424,832
66592.893035,423,836
66592.893035,421,832
66592.893035,418,832
66592.893035,415,836
66592.893035,412,832
66592.893035,409,832
66592.893035,406,836
66592.893035,403,832
66592.909814,401,832
66592.909814,398,836
66592.909814,395,832
66592.909814,393,832
66592.909814,391,836
66592.909814,389,832
66592.909814,387,836
66592.909814,386,832
66592.909814,384,832
66592.909814,383,836
66592.909814,381,832
66592.909814,379,832
66592.909814,378,836
66592.909814,377,832
66592.909814,377,832
66592.909814,376,836
66592.921237,376,832
66592.921237,375,832
66592.921237,375,848
66592.921237,374,820
66592.921237,375,832
66592.921237,374,836
66592.921237,374,832
66592.921237,373,832
66592.921237,373,836
66592.921237,373,832
66592.921237,373,832
66592.921237,373,836
66592.921237,373,832
66592.921237,373,832
66592.921237,373,836
66592.921237,374,832
66592.933955,374,832
66592.933955,374,836
66592.933955,374,832
66592.933955,374,836
66592.933955,374,832
66592.933955,373,832
66592.933955,373,836
66592.933955,373,832
66592.933955,373,832
66592.933955,373,836
66592.933955,373,832
66592.933955,373,832
66592.933955,373,836
66592.933955,374,832
66592.933955,374,832
66592.933955,374,836
66592.950311,375,832
66592.950311,375,832
66592.950311,376,836
66592.950311,376,832
66592.950311,376,832
66592.950311,376,836
66592.950311,377,832
66592.950311,377,832
66592.950311,378,836
66592.950311,379,832
66592.950311,380,832
66592.950311,381,836
66592.950311,381,832
66592.950311,382,832
66592.950311,383,836
66592.950311,383,832
66592.962993,383,832
66592.962993,383,836
66592.962993,384,832
66592.962993,384,836
66592.962993,385,832
66592.962993,386,832
66592.962993,386,836
66592.962993,387,832
66592.962993,387,832
66592.962993,387,836
66592.962993,388,832
66592.962993,388,832
66592.962993,388,836
66592.962993,389,832
66592.962993,389,832
66592.962993,390,836
66592.97565600001,391,832
66592.97565600001,391,832
66592.97565600001,390,836
66592.97565600001,390,832
66592.97565600001,391,832
66592.97565600001,391,836
66592.97565600001,391,832
66592.97565600001,390,832
66592.97565600001,391,836
66592.97565600001,391,832
66592.97565600001,392,832
66592.97565600001,392,836
66592.97565600001,392,832
66592.97565600001,392,832
66592.97565600001,393,836
66592.97565600001,393,832
66592.987981,393,832
66592.987981,393,836
66592.987981,393,832
66592.987981,393,832
66592.987981,393,836
66592.987981,393,832
66592.987981,393,836
66592.987981,394,832
66592.987981,395,832
66592.987981,395,836
66592.987981,396,832
66592.987981,396,832
66592.987981,397,836
66592.987981,397,832
66592.987981,398,832
66592.987981,399,836
66593.003479,400,832
66593.003479,400,832
66593.003479,400,836
66593.003479,400,832
66593.003479,401,832
66593.003479,401,836
66593.003479,403,832
66593.003479,403,832
66593.003479,403,836
66593.003479,403,832
66593.003479,403,832
66593.003479,403,836
66593.003479,403,832
66593.003479,403,832
66593.003479,403,836
66593.003479,402,832
66593.016026,402,832
66593.016026,403,836
66593.016026,402,832
66593.016026,403,832
66593.016026,403,836
66593.016026,404,832
66593.016026,405,836
66593.016026,405,832
66593.016026,406,832
66593.016026,406,836
66593.016026,407,832
66593.016026,408,832
66593.016026,408,836
66593.016026,408,832
66593.016026,407,832
66593.016026,407,836
66593.028862,407,832
66593.028862,407,832
66593.028862,408,836
66593.028862,409,832
66593.028862,409,832
66593.028862,410,836
66593.028862,410,832
66593.028862,410,832
66593.028862,410,836
66593.028862,411,832
66593.028862,412,832
66593.028862,413,836
66593.028862,413,832
66593.028862,413,832
66593.028862,414,836
66593.028862,414,832
66593.045287,414,832
66593.045287,414,836
66593.045287,414,832
66593.045287,414,832
66593.045287,415,836
66593.045287,415,832
66593.045287,415,836
66593.045287,416,832
66593.045287,416,832
66593.045287,416,836
66593.045287,417,832
66593.045287,417,832
66593.045287,417,836
66593.045287,417,832
66593.045287,418,832
66593.045287,418,836
66593.05665299999,419,832
66593.05665299999,420,832
66593.05665299999,420,836
66593.05665299999,419,832
66593.05665299999,420,832
66593.05665299999,420,836
66593.05665299999,421,832
66593.05665299999,421,832
66593.05665299999,422,836
66593.05665299999,422,832
66593.05665299999,423,832
66593.05665299999,424,836
66593.05665299999,425,832
66593.05665299999,425,832
66593.05665299999,426,836
66593.05665299999,426,832
66593.069398,425,832
66593.069398,424,836
66593.069398,424,832
66593.069398,424,832
66593.069398,423,836
66593.069398,424,832
66593.069398,423,836
66593.069398,423,832
66593.069398,424,832
66593.069398,425,836
66593.069398,426,832
66593.069398,426,832
66593.069398,426,836
66593.069398,426,832
66593.069398,426,844
66593.069398,426,824
66593.08208600001,427,832
66593.08208600001,427,832
66593.08208600001,427,836
66593.08208600001,428,832
66593.08208600001,428,832
66593.08208600001,429,836
66593.08208600001,430,832
66593.08208600001,430,832
66593.08208600001,431,836
66593.08208600001,431,832
66593.08208600001,432,832
66593.08208600001,432,836
66593.08208600001,431,832
66593.08208600001,431,832
66593.08208600001,431,836
66593.08208600001,431,832
66593.098679,431,832
66593.098679,431,836
66593.098679,431,832
66593.098679,431,832
66593.098679,432,836
66593.098679,432,832
66593.098679,432,836
66593.098679,433,832
66593.098679,433,832
66593.098679,432,836
66593.098679,433,832
66593.098679,433,832
66593.098679,434,836
66593.098679,434,832
66593.098679,435,832
66593.098679,435,836
66593.110442,435,832
66593.110442,435,832
66593.110442,435,836
66593.110442,435,832
66593.110442,435,832
66593.110442,435,836
66593.110442,435,832
66593.110442,436,832
66593.110442,438,836
66593.110442,438,832
66593.110442,439,832
66593.110442,441,836
66593.110442,441,832
66593.110442,441,832
66593.110442,441,836
66593.110442,441,832
66593.123038,441,832
66593.123038,442,836
66593.123038,442,832
66593.123038,443,836
66593.123038,443,832
66593.123038,443,832
66593.123038,443,836
66593.123038,443,832
66593.123038,443,832
66593.123038,444,836
66593.123038,444,832
66593.123038,444,832
66593.123038,444,836
66593.123038,445,832
66593.123038,445,832
66593.123038,444,836
66593.139592,444,832
66593.139592,444,832
66593.139592,444,836
66593.139592,444,832
66593.139592,445,832
66593.139592,445,836
66593.139592,446,832
66593.139592,446,832
66593.139592,446,836
66593.139592,447,832
66593.139592,446,832
66593.139592,446,836
66593.139592,446,832
66593.139592,447,832
66593.139592,447,836
66593.139592,447,832
66593.150997,447,832
66593.150997,448,836
66593.150997,448,832
66593.150997,448,836
66593.150997,447,832
66593.150997,447,832
66593.150997,448,836
66593.150997,448,832
66593.150997,448,832
66593.150997,448,836
66593.150997,449,832
66593.150997,450,832
66593.150997,451,836
66593.150997,453,832
66593.150997,453,832
66593.150997,454,836
66593.163662,455,832
66593.163662,455,832
66593.163662,455,836
66593.163662,456,832
66593.163662,455,832
66593.163662,455,836
66593.163662,455,832
66593.163662,455,832
66593.163662,455,836
66593.163662,455,832
66593.163662,455,832
66593.163662,456,836
66593.163662,455,832
66593.163662,455,832
66593.163662,455,836
66593.163662,455,832
66593.175071,455,832
66593.175071,455,836
66593.175071,455,832
66593.175071,454,836
66593.175071,454,832
66593.175071,454,832
66593.175071,453,836
66593.175071,454,832
66593.175071,454,832
66593.175071,455,836
66593.175071,454,832
66593.175071,455,832
66593.175071,455,836
66593.175071,455,832
66593.175071,456,832
66593.175071,457,836
66593.191641,457,832
66593.191641,458,832
66593.191641,459,836
66593.191641,460,832
66593.191641,459,832
66593.191641,460,836
66593.191641,460,832
66593.191641,461,832
66593.191641,461,836
66593.191641,462,832
66593.191641,462,832
66593.191641,462,836
66593.191641,462,832
66593.191641,463,832
66593.191641,463,836
66593.191641,463,832
66593.20426299999,462,832
66593.20426299999,462,836
66593.20426299999,461,832
66593.20426299999,461,832
66593.20426299999,460,836
66593.20426299999,461,832
66593.20426299999,460,836
66593.20426299999,460,832
66593.20426299999,461,832
66593.20426299999,461,836
66593.20426299999,461,832
66593.20426299999,461,832
66593.20426299999,462,836
66593.20426299999,462,832
66593.20426299999,462,832
66593.20426299999,462,836
66593.216713,461,832
66593.216713,462,832
66593.216713,462,836
66593.216713,462,832
66593.216713,462,832
66593.216713,462,836
66593.216713,464,832
66593.216713,465,832
66593.216713,465,836
66593.216713,466,832
66593.216713,467,832
66593.216713,467,836
66593.216713,467,832
66593.216713,467,832
66593.216713,466,836
66593.216713,465,832
66593.22932900001,464,832
66593.22932900001,463,836
66593.22932900001,462,832
66593.22932900001,461,832
66593.22932900001,461,836
66593.22932900001,462,832
66593.22932900001,462,836
66593.22932900001,462,832
66593.22932900001,463,832
66593.22932900001,463,836
66593.22932900001,463,832
66593.22932900001,463,832
66593.22932900001,463,836
66593.22932900001,463,832
66593.22932900001,463,832
66593.22932900001,462,836
66593.240676,461,832
66593.240676,461,832
66593.240676,461,836
66593.240676,461,832
66593.240676,462,832
66593.240676,462,836
66593.240676,463,832
66593.240676,462,832
66593.240676,463,836
66593.240676,464,832
66593.240676,464,832
66593.240676,465,836
66593.240676,466,832
66593.240676,467,832
66593.240676,466,836
66593.240676,466,832
66593.256997,466,832
66593.256997,466,836
66593.256997,467,832
66593.256997,467,832
66593.256997,467,836
66593.256997,467,832
66593.256997,468,836
66593.256997,468,832
66593.256997,469,832
66593.256997,469,836
66593.256997,470,832
66593.256997,471,832
66593.256997,471,836
66593.256997,471,832
66593.256997,472,832
66593.256997,472,836
66593.269544,472,832
66593.269544,472,832
66593.269544,472,836
66593.269544,472,832
66593.269544,472,832
66593.269544,472,848
66593.269544,472,820
66593.269544,472,832
66593.269544,472,836
66593.269544,472,832
66593.269544,472,832
66593.269544,472,836
66593.269544,472,832
66593.269544,473,832
66593.269544,472,836
66593.269544,473,832
66593.282148,474,832
66593.282148,474,836
66593.282148,474,832
66593.282148,474,832
66593.282148,475,836
66593.282148,476,832
66593.282148,476,836
66593.282148,476,832
66593.282148,476,832
66593.282148,476,836
66593.282148,475,832
66593.282148,475,832
66593.282148,475,836
66593.282148,475,832
66593.282148,474,832
66593.282148,474,836
66593.294823,473,832
66593.294823,473,832
66593.294823,472,836
66593.294823,473,832
66593.294823,473,832
66593.294823,473,836
66593.294823,474,832
66593.294823,474,832
66593.294823,474,836
66593.294823,474,832
66593.294823,474,832
66593.294823,474,836
66593.294823,474,832
66593.294823,475,832
66593.294823,475,836
66593.294823,475,832
66593.31129900001,476,832
66593.31129900001,476,836
66593.31129900001,476,832
66593.31129900001,476,836
66593.31129900001,475,832
66593.31129900001,475,832
66593.31129900001,475,836
66593.31129900001,475,832
66593.31129900001,475,832
66593.31129900001,475,836
66593.31129900001,476,832
66593.31129900001,476,832
66593.31129900001,476,836
66593.31129900001,477,832
66593.31129900001,477,832
66593.31129900001,478,836
66593.322838,478,832
66593.322838,478,832
66593.322838,477,836
66593.322838,477,832
66593.322838,477,832
66593.322838,477,836
66593.322838,475,832
66593.322838,475,832
66593.322838,474,836
66593.322838,473,832
66593.322838,473,832
66593.322838,473,836
66593.322838,473,832
66593.322838,473,832
66593.322838,473,836
66593.322838,473,832
66593.335391,473,832
66593.335391,474,836
66593.335391,474,832
66593.335391,474,832
66593.335391,475,836
66593.335391,476,832
66593.335391,476,836
66593.335391,477,832
66593.335391,478,832
66593.335391,480,836
66593.335391,480,832
66593.335391,481,832
66593.335391,482,836
66593.335391,483,832
66593.335391,483,832
66593.335391,484,836
66593.347926,484,832
66593.347926,484,832
66593.347926,484,836
66593.347926,484,832
66593.347926,484,832
66593.347926,485,836
66593.347926,484,832
66593.347926,485,832
66593.347926,484,836
66593.347926,485,832
66593.347926,485,832
66593.347926,485,836
66593.347926,485,832
66593.347926,484,832
66593.347926,484,836
66593.347926,483,832
66593.360451,483,832
66593.360451,483,836
66593.360451,483,832
66593.360451,482,832
66593.360451,481,836
66593.360451,481,832
66593.360451,481,836
66593.360451,481,832
66593.360451,480,832
66593.360451,480,836
66593.360451,479,832
66593.360451,479,832
66593.360451,480,836
66593.360451,480,832
66593.360451,480,832
66593.360451,480,836
66593.376879,479,832
66593.376879,479,832
66593.376879,479,836
66593.376879,479,832
66593.376879,479,832
66593.376879,479,836
66593.376879,479,832
66593.376879,480,832
66593.376879,479,836
66593.376879,480,832
66593.376879,480,832
66593.376879,480,836
66593.376879,481,832
66593.376879,480,832
66593.376879,481,836
66593.376879,480,832
66593.388325,480,832
66593.388325,480,836
66593.388325,480,832
66593.388325,479,836
66593.388325,480,832
66593.388325,480,832
66593.388325,480,836
66593.388325,479,832
66593.388325,479,832
66593.388325,479,836
66593.388325,480,832
66593.388325,480,832
66593.388325,480,836
66593.388325,480,832
66593.388325,481,832
66593.388325,481,836
66593.401002,482,832
66593.401002,481,832
66593.401002,481,836
66593.401002,482,832
66593.401002,482,832
66593.401002,482,836
66593.401002,483,832
66593.401002,483,832
66593.401002,484,836
66593.401002,485,832
66593.401002,485,832
66593.401002,485,836
66593.401002,486,832
66593.401002,486,832
66593.401002,485,836
66593.401002,484,832
66593.417518,484,832
66593.417518,485,836
66593.417518,484,832
66593.417518,484,832
66593.417518,484,836
66593.417518,483,832
66593.417518,484,836
66593.417518,484,832
66593.417518,484,832
66593.417518,484,836
66593.417518,484,832
66593.417518,484,832
66593.417518,484,836
66593.417518,484,832
66593.417518,484,832
66593.417518,485,836
66593.429278,485,832
66593.429278,485,844
66593.429278,486,824
66593.429278,486,832
66593.429278,486,832
66593.429278,486,836
66593.429278,486,832
66593.429278,486,832
66593.429278,486,836
66593.429278,486,832
66593.429278,486,832
66593.429278,485,836
66593.429278,485,832
66593.429278,485,832
66593.429278,484,836
66593.429278,484,832
66593.442067,484,832
66593.442067,484,836
66593.442067,484,832
66593.442067,484,832
66593.442067,485,836
66593.442067,485,832
66593.442067,485,836
66593.442067,486,832
66593.442067,486,832
66593.442067,486,836
66593.442067,486,832
66593.442067,486,832
66593.442067,486,836
66593.442067,486,832
66593.442067,486,832
66593.442067,486,836
66593.454948,486,832
66593.454948,486,832
66593.454948,487,836
66593.454948,487,832
66593.454948,487,832
66593.454948,487,836
66593.454948,487,832
66593.454948,487,832
66593.454948,487,836
66593.454948,487,832
66593.454948,487,832
66593.454948,488,836
66593.454948,488,832
66593.454948,488,832
66593.454948,489,836
66593.454948,489,832
66593.470426,489,832
66593.470426,489,836
66593.470426,490,832
66593.470426,490,832
66593.470426,490,836
66593.470426,490,832
66593.470426,490,836
66593.470426,490,832
66593.470426,490,832
66593.470426,490,836
66593.470426,490,832
66593.470426,491,832
66593.470426,492,836
66593.470426,492,832
66593.470426,492,832
66593.470426,492,836
66593.48301299999,492,832
66593.48301299999,492,832
66593.48301299999,492,836
66593.48301299999,493,832
66593.48301299999,492,832
66593.48301299999,492,836
66593.48301299999,492,832
66593.48301299999,492,832
66593.48301299999,492,836
66593.48301299999,491,832
66593.48301299999,492,832
66593.48301299999,492,836
66593.48301299999,492,832
66593.48301299999,492,832
66593.48301299999,492,836
66593.48301299999,492,832
66593.495911,492,832
66593.495911,493,836
66593.495911,493,832
66593.495911,494,832
66593.495911,494,836
66593.495911,494,832
66593.495911,495,836
66593.495911,495,832
66593.495911,496,832
66593.495911,496,836
66593.495911,497,832
66593.495911,497,832
66593.495911,497,836
66593.495911,498,832
66593.495911,498,832
66593.495911,498,836
66593.512438,498,832
66593.512438,498,832
66593.512438,497,836
66593.512438,496,832
66593.512438,496,832
66593.512438,495,836
66593.512438,496,832
66593.512438,496,832
66593.512438,496,836
66593.512438,496,832
66593.512438,496,832
66593.512438,495,836
66593.512438,496,832
66593.512438,495,832
66593.512438,495,836
66593.512438,495,832
66593.523819,495,832
66593.523819,495,836
66593.523819,494,832
66593.523819,494,836
66593.523819,494,832
66593.523819,494,832
66593.523819,495,836
66593.523819,495,832
66593.523819,494,832
66593.523819,495,836
66593.523819,495,832
66593.523819,496,832
66593.523819,497,836
66593.523819,497,832
66593.523819,497,832
66593.523819,497,836
66593.536657,497,832
66593.536657,497,832
66593.536657,498,836
66593.536657,498,832
66593.536657,499,832
66593.536657,498,836
66593.536657,498,832
66593.536657,498,832
66593.536657,498,836
66593.536657,498,832
66593.536657,499,832
66593.536657,500,836
66593.536657,500,832
66593.536657,500,832
66593.536657,501,836
66593.536657,501,832
66593.548031,501,832
66593.548031,501,836
66593.548031,501,832
66593.548031,501,832
66593.548031,501,836
66593.548031,501,832
66593.548031,501,836
66593.548031,500,832
66593.548031,501,832
66593.548031,500,836
66593.548031,500,832
66593.548031,500,832
66593.548031,500,836
66593.548031,500,832
66593.548031,500,832
66593.548031,500,836
66593.564726,500,832
66593.564726,501,832
66593.564726,501,836
66593.564726,501,832
66593.564726,501,832
66593.564726,501,836
66593.564726,501,832
66593.564726,501,832
66593.564726,500,836
66593.564726,500,832
66593.564726,500,832
66593.564726,499,836
66593.564726,499,832
66593.564726,500,832
66593.564726,500,836
66593.564726,500,832
66593.577555,500,832
66593.577555,501,836
66593.577555,501,832
66593.577555,501,836
66593.577555,502,832
66593.577555,502,832
66593.577555,502,836
66593.577555,501,832
66593.577555,501,832
66593.577555,501,836
66593.577555,501,832
66593.577555,501,832
66593.577555,501,836
66593.577555,500,832
66593.577555,500,832
66593.577555,501,836
66593.588925,501,832
66593.588925,500,832
66593.588925,499,836
66593.588925,499,832
66593.588925,498,832
66593.588925,498,836
66593.588925,497,832
66593.588925,497,832
66593.588925,496,836
66593.588925,496,832
66593.588925,496,832
66593.588925,496,836
66593.588925,496,832
66593.588925,495,832
66593.588925,495,836
66593.588925,496,832
66593.605409,496,832
66593.605409,496,836
66593.605409,496,832
66593.605409,496,832
66593.605409,497,836
66593.605409,498,832
66593.605409,498,836
66593.605409,499,832
66593.605409,499,832
66593.605409,500,836
66593.605409,499,832
66593.605409,499,832
66593.605409,499,836
66593.605409,499,832
66593.605409,500,832
66593.605409,500,836
