timestamp,data1,data2
66599.487881,506,736
66599.487881,506,836
66599.487881,505,832
66599.487881,506,832
66599.487881,506,836
66599.487881,507,832
66599.487881,506,836
66599.487881,507,832
66599.487881,507,832
66599.487881,507,836
66599.487881,508,832
66599.487881,507,832
66599.487881,507,836
66599.487881,506,832
66599.500568,505,832
66599.500568,504,836
66599.500568,503,832
66599.500568,504,832
66599.500568,504,836
66599.500568,504,832
66599.500568,504,832
66599.500568,504,836
66599.500568,504,832
66599.500568,504,832
66599.500568,504,836
66599.500568,505,832
66599.500568,505,832
66599.500568,505,836
66599.500568,504,832
66599.500568,504,832
66599.511738,503,836
66599.511738,504,832
66599.511738,505,832
66599.511738,505,836
66599.511738,506,832
66599.511738,506,832
66599.511738,506,836
66599.511738,506,832
66599.511738,506,832
66599.511738,506,836
66599.511738,506,832
66599.511738,506,836
66599.511738,506,832
66599.511738,507,832
66599.511738,506,836
66599.511738,506,832
66599.528283,506,832
66599.528283,508,836
66599.528283,508,832
66599.528283,508,832
66599.528283,508,836
66599.528283,508,832
66599.528283,507,832
66599.528283,507,836
66599.528283,507,832
66599.528283,508,832
66599.528283,508,836
66599.528283,509,832
66599.528283,509,832
66599.528283,509,836
66599.528283,509,832
66599.528283,510,832
66599.540966,510,836
66599.540966,510,832
66599.540966,510,832
66599.540966,510,836
66599.540966,510,832
66599.540966,511,832
66599.540966,511,836
66599.540966,511,832
66599.540966,511,836
66599.540966,511,832
66599.540966,511,832
66599.540966,511,836
66599.540966,511,832
66599.540966,511,832
66599.540966,512,836
66599.540966,512,832
66599.552449,512,832
66599.552449,512,836
66599.552449,512,832
66599.552449,513,832
66599.552449,512,836
66599.552449,512,832
66599.552449,512,832
66599.552449,511,836
66599.552449,511,832
66599.552449,511,832
66599.552449,511,836
66599.552449,510,832
66599.552449,510,832
66599.552449,509,836
66599.552449,509,832
66599.552449,508,832
66599.565,508,836
66599.565,508,832
66599.565,508,832
66599.565,508,836
66599.565,509,832
66599.565,509,832
66599.565,510,836
66599.565,510,832
66599.565,510,832
66599.565,510,836
66599.565,510,832
66599.565,510,836
66599.565,510,832
66599.565,510,832
66599.565,510,836
66599.565,510,832
66599.581786,511,832
66599.581786,511,836
66599.581786,511,832
66599.581786,511,832
66599.581786,511,836
66599.581786,511,832
66599.581786,513,832
66599.581786,513,836
66599.581786,512,832
66599.581786,512,832
66599.581786,511,836
66599.581786,511,832
66599.581786,511,832
66599.581786,511,836
66599.581786,512,832
66599.581786,512,832
66599.59334200001,513,836
66599.59334200001,514,832
66599.59334200001,514,832
66599.59334200001,514,836
66599.59334200001,514,832
66599.59334200001,513,832
66599.59334200001,513,836
66599.59334200001,513,832
66599.59334200001,513,832
66599.59334200001,513,836
66599.59334200001,512,832
66599.59334200001,512,836
66599.59334200001,511,832
66599.59334200001,511,832
66599.59334200001,511,836
66599.59334200001,510,832
66599.605958,509,832
66599.605958,509,836
66599.605958,508,832
66599.605958,509,832
66599.605958,509,836
66599.605958,509,832
66599.605958,509,832
66599.605958,509,836
66599.605958,510,832
66599.605958,510,832
66599.605958,510,836
66599.605958,510,832
66599.605958,509,832
66599.605958,509,836
66599.605958,509,832
66599.605958,508,832
66599.622259,508,836
66599.622259,508,832
66599.622259,508,832
66599.622259,508,836
66599.622259,508,832
66599.622259,508,832
66599.622259,507,836
66599.622259,508,832
66599.622259,507,836
66599.622259,506,832
66599.622259,506,832
66599.622259,505,836
66599.622259,505,832
66599.622259,504,832
66599.622259,504,836
66599.622259,504,832
66599.634855,504,832
66599.634855,504,836
66599.634855,504,832
66599.634855,504,832
66599.634855,504,836
66599.634855,503,832
66599.634855,504,832
66599.634855,504,836
66599.634855,504,832
66599.634855,503,832
66599.634855,503,836
66599.634855,504,832
66599.634855,503,832
66599.634855,503,836
66599.634855,504,832
66599.634855,505,832
66599.647486,505,836
66599.647486,504,832
66599.647486,504,832
66599.647486,505,836
66599.647486,505,832
66599.647486,505,832
66599.647486,506,836
66599.647486,506,832
66599.647486,506,836
66599.647486,507,832
66599.647486,507,832
66599.647486,507,836
66599.647486,507,832
66599.647486,508,832
66599.647486,508,836
66599.647486,508,832
66599.65904299999,508,832
66599.65904299999,508,836
66599.65904299999,507,832
66599.65904299999,507,832
66599.65904299999,507,836
66599.65904299999,506,832
66599.65904299999,506,832
66599.65904299999,506,836
66599.65904299999,506,832
66599.65904299999,506,832
66599.65904299999,506,836
66599.65904299999,506,832
66599.65904299999,506,832
66599.65904299999,506,836
66599.65904299999,506,832
66599.65904299999,505,832
66599.675477,505,836
66599.675477,504,832
66599.675477,504,832
66599.675477,504,836
66599.675477,504,832
66599.675477,504,832
66599.675477,504,836
66599.675477,504,832
66599.675477,504,836
66599.675477,505,832
66599.675477,505,832
66599.675477,506,836
66599.675477,506,832
66599.675477,506,832
66599.675477,506,836
66599.675477,505,832
66599.68832100001,506,832
66599.68832100001,505,836
66599.68832100001,506,832
66599.68832100001,505,832
66599.68832100001,505,836
66599.68832100001,505,832
66599.68832100001,505,832
66599.68832100001,505,836
66599.68832100001,506,832
66599.68832100001,506,832
66599.68832100001,506,836
66599.68832100001,507,832
66599.68832100001,507,832
66599.68832100001,507,836
66599.68832100001,506,832
66599.68832100001,506,832
66599.699966,505,836
66599.699966,505,832
66599.699966,505,832
66599.699966,504,836
66599.699966,504,832
66599.699966,505,832
66599.699966,505,836
66599.699966,506,832
66599.699966,505,832
66599.699966,505,836
66599.699966,505,832
66599.699966,505,836
66599.699966,504,832
66599.699966,504,832
66599.699966,503,836
66599.699966,503,832
66599.716388,503,832
66599.716388,502,836
66599.716388,502,832
66599.716388,502,832
66599.716388,502,836
66599.716388,502,832
66599.716388,502,832
66599.716388,502,836
66599.716388,503,832
66599.716388,503,832
66599.716388,504,836
66599.716388,504,832
66599.716388,504,832
66599.716388,505,836
66599.716388,505,832
66599.716388,506,832
66599.729171,506,836
66599.729171,506,832
66599.729171,506,832
66599.729171,506,836
66599.729171,507,832
66599.729171,507,832
66599.729171,507,836
66599.729171,508,832
66599.729171,508,832
66599.729171,508,836
66599.729171,508,832
66599.729171,509,836
66599.729171,509,832
66599.729171,509,832
66599.729171,509,836
66599.729171,508,832
66599.741788,509,832
66599.741788,510,836
66599.741788,510,832
66599.741788,510,832
66599.741788,510,836
66599.741788,511,832
66599.741788,510,832
66599.741788,510,836
66599.741788,511,832
66599.741788,510,832
66599.741788,511,836
66599.741788,511,832
66599.741788,509,832
66599.741788,509,836
66599.741788,509,832
66599.741788,509,832
66599.753013,508,836
66599.753013,508,832
66599.753013,509,832
66599.753013,510,836
66599.753013,511,832
66599.753013,511,832
66599.753013,511,836
66599.753013,511,832
66599.753013,511,832
66599.753013,511,836
66599.753013,510,832
66599.753013,510,836
66599.753013,510,832
66599.753013,509,832
66599.753013,509,836
66599.753013,509,832
66599.769396,509,832
66599.769396,509,836
66599.769396,508,832
66599.769396,508,832
66599.769396,509,836
66599.769396,509,832
66599.769396,509,832
66599.769396,510,836
66599.769396,509,832
66599.769396,509,832
66599.769396,509,836
66599.769396,509,832
66599.769396,509,832
66599.769396,509,836
66599.769396,509,832
66599.769396,509,832
66599.782131,509,836
66599.782131,510,832
66599.782131,509,832
66599.782131,510,836
66599.782131,510,832
66599.782131,510,832
66599.782131,510,836
66599.782131,510,832
66599.782131,511,836
66599.782131,511,832
66599.782131,511,832
66599.782131,510,836
66599.782131,510,832
66599.782131,510,832
66599.782131,511,836
66599.782131,511,832
66599.794772,511,832
66599.794772,512,836
66599.794772,512,832
66599.794772,512,832
66599.794772,512,836
66599.794772,512,832
66599.794772,512,832
66599.794772,512,836
66599.794772,512,832
66599.794772,512,832
66599.794772,513,836
66599.794772,513,832
66599.794772,513,832
66599.794772,512,836
66599.794772,513,844
66599.794772,513,820
66599.811243,513,836
66599.811243,513,832
66599.811243,513,832
66599.811243,513,836
66599.811243,513,832
66599.811243,513,832
66599.811243,513,836
66599.811243,513,832
66599.811243,513,836
66599.811243,513,832
66599.811243,513,832
66599.811243,513,836
66599.811243,513,832
66599.811243,513,832
66599.811243,513,836
66599.811243,514,832
66599.822595,514,832
66599.822595,514,836
66599.822595,514,832
66599.822595,514,832
66599.822595,514,836
66599.822595,514,832
66599.822595,515,832
66599.822595,516,836
66599.822595,516,832
66599.822595,516,832
66599.822595,516,836
66599.822595,516,832
66599.822595,516,832
66599.822595,517,836
66599.822595,516,832
66599.822595,516,832
66599.835728,516,836
66599.835728,516,832
66599.835728,515,832
66599.835728,515,836
66599.835728,515,832
66599.835728,515,832
66599.835728,515,836
66599.835728,515,832
66599.835728,515,836
66599.835728,515,832
66599.835728,515,832
66599.835728,515,836
66599.835728,515,832
66599.835728,514,832
66599.835728,514,836
66599.835728,514,832
66599.8485,515,832
66599.8485,515,836
66599.8485,514,832
66599.8485,514,832
66599.8485,514,836
66599.8485,514,832
66599.8485,514,832
66599.8485,514,836
66599.8485,514,832
66599.8485,514,832
66599.8485,514,836
66599.8485,514,832
66599.8485,514,832
66599.8485,513,836
66599.8485,513,832
66599.8485,513,832
66599.864786,514,836
66599.864786,513,832
66599.864786,513,832
66599.864786,513,836
66599.864786,514,832
66599.864786,514,832
66599.864786,513,836
66599.864786,513,832
66599.864786,514,836
66599.864786,514,832
66599.864786,514,832
66599.864786,514,836
66599.864786,513,832
66599.864786,513,832
66599.864786,513,836
66599.864786,513,832
66599.87624499999,513,832
66599.87624499999,512,836
66599.87624499999,513,832
66599.87624499999,513,832
66599.87624499999,513,836
66599.87624499999,512,832
66599.87624499999,512,832
66599.87624499999,512,836
66599.87624499999,513,832
66599.87624499999,513,832
66599.87624499999,513,836
66599.87624499999,512,832
66599.87624499999,512,832
66599.87624499999,511,836
66599.87624499999,511,832
66599.87624499999,510,832
66599.88908600001,511,836
66599.88908600001,511,832
66599.88908600001,510,832
66599.88908600001,510,836
66599.88908600001,511,832
66599.88908600001,511,832
66599.88908600001,512,836
66599.88908600001,512,832
66599.88908600001,512,832
66599.88908600001,512,836
66599.88908600001,513,832
66599.88908600001,513,836
66599.88908600001,513,832
66599.88908600001,512,832
66599.88908600001,512,836
66599.88908600001,512,832
66599.9007,513,832
66599.9007,513,836
66599.9007,513,832
66599.9007,513,832
66599.9007,513,836
66599.9007,514,832
66599.9007,515,832
66599.9007,515,836
66599.9007,515,832
66599.9007,515,832
66599.9007,515,836
66599.9007,515,832
66599.9007,515,832
66599.9007,516,836
66599.9007,516,832
66599.9007,516,832
66599.913306,516,836
66599.913306,516,832
66599.913306,516,832
66599.913306,517,836
66599.913306,517,832
66599.913306,517,832
66599.913306,517,836
66599.913306,517,832
66599.913306,517,832
66599.913306,517,836
66599.913306,517,832
66599.913306,516,836
66599.913306,516,832
66599.913306,516,832
66599.913306,515,836
66599.913306,515,832
66599.929728,515,832
66599.929728,515,836
66599.929728,516,832
66599.929728,516,832
66599.929728,516,836
66599.929728,516,832
66599.929728,517,832
66599.929728,517,836
66599.929728,518,832
66599.929728,518,832
66599.929728,518,836
66599.929728,518,832
66599.929728,518,832
66599.929728,518,836
66599.929728,517,832
66599.929728,517,832
66599.942571,517,836
66599.942571,517,832
66599.942571,517,832
66599.942571,518,836
66599.942571,518,832
66599.942571,518,832
66599.942571,518,836
66599.942571,518,832
66599.942571,518,836
66599.942571,519,832
66599.942571,518,832
66599.942571,519,836
66599.942571,518,832
66599.942571,518,832
66599.942571,518,836
66599.942571,518,832
66599.954669,518,832
66599.954669,517,836
66599.954669,517,832
66599.954669,517,832
66599.954669,518,836
66599.954669,518,832
66599.954669,518,832
66599.954669,518,836
66599.954669,517,832
66599.954669,517,832
66599.954669,517,836
66599.954669,517,832
66599.954669,517,832
66599.954669,519,836
66599.954669,528,832
66599.954669,527,832
66599.966222,526,836
66599.966222,525,832
66599.966222,524,832
66599.966222,524,836
66599.966222,524,832
66599.966222,523,832
66599.966222,522,836
66599.966222,522,832
66599.966222,522,832
66599.966222,521,836
66599.966222,521,832
66599.966222,521,836
66599.966222,521,832
66599.966222,521,832
66599.966222,521,836
66599.966222,520,832
66599.982661,520,832
66599.982661,520,836
66599.982661,520,832
66599.982661,521,832
66599.982661,520,836
66599.982661,520,832
66599.982661,520,832
66599.982661,520,836
66599.982661,520,832
66599.982661,520,832
66599.982661,521,836
66599.982661,520,832
66599.982661,520,832
66599.982661,520,836
66599.982661,520,832
66599.982661,520,832
66599.995298,520,836
66599.995298,521,832
66599.995298,522,832
66599.995298,522,836
66599.995298,522,832
66599.995298,522,832
66599.995298,523,836
66599.995298,523,832
66599.995298,524,832
66599.995298,524,836
66599.995298,524,832
66599.995298,524,836
66599.995298,523,832
66599.995298,523,832
66599.995298,524,836
66599.995298,524,832
66600.006754,523,832
66600.006754,523,836
66600.006754,523,832
66600.006754,523,832
66600.006754,523,836
66600.006754,524,832
66600.006754,524,832
66600.006754,523,836
66600.006754,522,832
66600.006754,522,832
66600.006754,521,836
66600.006754,521,832
66600.006754,521,832
66600.006754,521,836
66600.006754,521,832
66600.006754,521,832
66600.019456,520,836
66600.019456,521,832
66600.019456,521,832
66600.019456,521,836
66600.019456,521,832
66600.019456,522,832
66600.019456,522,836
66600.019456,521,832
66600.019456,522,836
66600.019456,521,832
66600.019456,521,832
66600.019456,521,836
66600.019456,520,832
66600.019456,520,832
66600.019456,520,836
66600.019456,520,832
66600.035923,521,832
66600.035923,521,836
66600.035923,522,832
66600.035923,523,832
66600.035923,524,836
66600.035923,524,832
66600.035923,525,832
66600.035923,525,836
66600.035923,526,832
66600.035923,526,832
66600.035923,526,836
66600.035923,526,832
66600.035923,527,832
66600.035923,527,836
66600.035923,527,832
66600.035923,529,832
66600.048632,529,836
66600.048632,530,832
66600.048632,530,832
66600.048632,531,836
66600.048632,531,832
66600.048632,532,832
66600.048632,533,836
66600.048632,533,832
66600.048632,532,832
66600.048632,532,836
66600.048632,532,832
66600.048632,531,836
66600.048632,531,832
66600.048632,531,832
66600.048632,531,836
66600.048632,531,832
66600.061309,531,832
66600.061309,531,836
66600.061309,531,832
66600.061309,530,832
66600.061309,530,836
66600.061309,529,832
66600.061309,529,832
66600.061309,528,836
66600.061309,528,832
66600.061309,528,832
66600.061309,528,836
66600.061309,528,832
66600.061309,528,832
66600.061309,527,836
66600.061309,527,832
66600.061309,528,832
66600.072674,528,836
66600.072674,528,832
66600.072674,529,832
66600.072674,530,836
66600.072674,530,832
66600.072674,530,832
66600.072674,530,836
66600.072674,530,832
66600.072674,531,832
66600.072674,531,836
66600.072674,531,832
66600.072674,532,836
66600.072674,532,832
66600.072674,533,832
66600.072674,533,836
66600.072674,534,832
66600.089238,536,832
66600.089238,538,836
66600.089238,539,832
66600.089238,540,832
66600.089238,542,836
66600.089238,544,832
66600.089238,546,832
66600.089238,548,836
66600.089238,548,832
66600.089238,548,832
66600.089238,548,836
66600.089238,548,832
66600.089238,548,832
66600.089238,548,836
66600.089238,549,832
66600.089238,550,832
66600.10194,551,836
66600.10194,552,832
66600.10194,553,832
66600.10194,555,836
66600.10194,557,832
66600.10194,560,832
66600.10194,562,836
66600.10194,566,832
66600.10194,569,836
66600.10194,572,832
66600.10194,576,832
66600.10194,579,836
66600.10194,582,832
66600.10194,586,832
66600.10194,589,836
66600.10194,592,832
66600.113475,595,832
66600.113475,598,836
66600.113475,600,832
66600.113475,602,832
66600.113475,605,836
66600.113475,609,832
66600.113475,614,832
66600.113475,619,836
66600.113475,623,832
66600.113475,628,832
66600.113475,632,836
66600.113475,637,832
66600.113475,641,832
66600.113475,645,836
66600.113475,649,832
66600.113475,653,832
66600.126319,657,836
66600.126319,660,832
66600.126319,666,832
66600.126319,671,836
66600.126319,676,832
66600.126319,680,832
66600.126319,684,836
66600.126319,689,832
66600.126319,693,832
66600.126319,697,836
66600.126319,700,832
66600.126319,705,836
66600.126319,710,832
66600.126319,715,832
66600.126319,719,836
66600.126319,724,832
66600.142621,728,832
66600.142621,732,836
66600.142621,736,832
66600.142621,741,832
66600.142621,745,836
66600.142621,749,832
66600.142621,753,832
66600.142621,756,836
66600.142621,758,832
66600.142621,761,832
66600.142621,764,836
66600.142621,768,832
66600.142621,771,832
66600.142621,774,836
66600.142621,777,832
66600.142621,782,832
66600.154566,787,836
66600.154566,791,844
66600.154566,797,820
66600.154566,800,836
66600.154566,805,832
66600.154566,809,832
66600.154566,814,836
66600.154566,816,832
66600.154566,819,832
66600.154566,822,836
66600.154566,825,832
66600.154566,827,836
66600.154566,830,832
66600.154566,832,832
66600.154566,836,836
66600.154566,840,832
66600.167213,844,832
66600.167213,848,836
66600.167213,852,832
66600.167213,856,832
66600.167213,859,836
66600.167213,861,832
66600.167213,863,832
66600.167213,865,836
66600.167213,867,832
66600.167213,868,832
66600.167213,870,836
66600.167213,871,832
66600.167213,874,832
66600.167213,876,836
66600.167213,880,832
66600.167213,883,832
66600.183753,885,836
66600.183753,887,832
66600.183753,888,832
66600.183753,890,836
66600.183753,891,832
66600.183753,891,832
66600.183753,892,836
66600.183753,893,832
66600.183753,893,836
66600.183753,893,832
66600.183753,894,832
66600.183753,895,836
66600.183753,895,832
66600.183753,895,832
66600.183753,896,836
66600.183753,897,832
66600.196666,898,832
66600.196666,898,836
66600.196666,898,832
66600.196666,897,832
66600.196666,896,836
66600.196666,895,832
66600.196666,895,832
66600.196666,893,836
66600.196666,892,832
66600.196666,892,832
66600.196666,891,836
66600.196666,891,832
66600.196666,890,832
66600.196666,888,836
66600.196666,887,832
66600.196666,885,832
66600.207937,883,836
66600.207937,882,832
66600.207937,880,832
66600.207937,878,836
66600.207937,877,832
66600.207937,877,832
66600.207937,877,836
66600.207937,877,832
66600.207937,877,832
66600.207937,877,836
66600.207937,876,832
66600.207937,875,836
66600.207937,873,832
66600.207937,871,832
66600.207937,869,836
66600.207937,867,832
66600.220663,866,832
66600.220663,866,836
66600.220663,866,832
66600.220663,866,832
66600.220663,867,836
66600.220663,866,832
66600.220663,865,832
66600.220663,862,836
66600.220663,859,832
66600.220663,857,832
66600.220663,855,836
66600.220663,853,832
66600.220663,851,832
66600.220663,850,836
66600.220663,851,832
66600.220663,851,832
66600.23723099999,850,836
66600.23723099999,849,832
66600.23723099999,846,832
66600.23723099999,843,836
66600.23723099999,841,832
66600.23723099999,838,832
66600.23723099999,835,836
66600.23723099999,833,832
66600.23723099999,831,832
66600.23723099999,830,836
66600.23723099999,829,832
66600.23723099999,826,836
66600.23723099999,825,832
66600.23723099999,825,832
66600.23723099999,826,836
66600.23723099999,825,832
66600.248786,824,832
66600.248786,822,836
66600.248786,820,832
66600.248786,819,832
66600.248786,818,836
66600.248786,817,832
66600.248786,816,832
66600.248786,815,836
66600.248786,814,832
66600.248786,811,832
66600.248786,809,836
66600.248786,806,832
66600.248786,805,832
66600.248786,803,836
66600.248786,802,832
66600.248786,801,832
66600.261458,800,836
66600.261458,799,832
66600.261458,798,832
66600.261458,796,836
66600.261458,794,832
66600.261458,793,832
66600.261458,790,836
66600.261458,788,832
66600.261458,786,836
66600.261458,784,832
66600.261458,784,832
66600.261458,782,836
66600.261458,779,832
66600.261458,777,832
66600.261458,775,836
66600.261458,774,832
66600.277988,772,832
66600.277988,770,836
66600.277988,767,832
66600.277988,766,832
66600.277988,763,836
66600.277988,760,832
66600.277988,759,832
66600.277988,757,836
66600.277988,755,832
66600.277988,753,832
66600.277988,752,836
66600.277988,751,832
66600.277988,749,832
66600.277988,749,836
66600.277988,749,832
66600.277988,747,832
66600.290599,745,836
66600.290599,743,832
66600.290599,743,832
66600.290599,742,836
66600.290599,740,832
66600.290599,738,832
66600.290599,737,836
66600.290599,736,832
66600.290599,734,832
66600.290599,733,836
66600.290599,731,832
66600.290599,729,836
66600.290599,728,832
66600.290599,726,832
66600.290599,724,836
66600.290599,722,832
66600.302261,720,832
66600.302261,719,836
66600.302261,718,832
66600.302261,717,832
66600.302261,716,836
66600.302261,714,832
66600.302261,713,832
66600.302261,712,836
66600.302261,710,832
66600.302261,708,832
66600.302261,707,836
66600.302261,706,832
66600.302261,704,832
66600.302261,703,836
66600.302261,702,832
66600.302261,701,832
66600.314968,700,836
66600.314968,698,832
66600.314968,697,832
66600.314968,695,836
66600.314968,694,832
66600.314968,693,832
66600.314968,692,836
66600.314968,690,832
66600.314968,689,836
66600.314968,689,832
66600.314968,688,832
66600.314968,687,836
66600.314968,685,832
66600.314968,685,832
66600.314968,684,836
66600.314968,684,832
66600.331435,684,832
66600.331435,683,836
66600.331435,682,832
66600.331435,681,832
66600.331435,681,836
66600.331435,680,832
66600.331435,679,832
66600.331435,678,836
66600.331435,678,832
66600.331435,677,832
66600.331435,676,836
66600.331435,675,832
66600.331435,674,832
66600.331435,674,836
66600.331435,674,832
66600.331435,673,832
66600.342878,672,836
66600.342878,671,832
66600.342878,671,832
66600.342878,670,836
66600.342878,669,832
66600.342878,667,832
66600.342878,666,836
66600.342878,665,832
66600.342878,664,848
66600.342878,663,820
66600.342878,662,832
66600.342878,660,836
66600.342878,660,832
66600.342878,659,832
66600.342878,658,836
66600.342878,657,832
66600.355416,656,832
66600.355416,656,836
66600.355416,655,832
66600.355416,654,832
66600.355416,653,836
66600.355416,653,832
66600.355416,653,832
66600.355416,651,836
66600.355416,651,832
66600.355416,651,832
66600.355416,650,836
66600.355416,649,832
66600.355416,648,832
66600.355416,647,836
66600.355416,647,832
66600.355416,646,832
66600.368009,646,836
66600.368009,644,832
66600.368009,644,832
66600.368009,643,836
66600.368009,642,832
66600.368009,641,832
66600.368009,640,836
66600.368009,640,832
66600.368009,640,832
66600.368009,639,836
66600.368009,638,832
66600.368009,638,836
66600.368009,637,832
66600.368009,636,832
66600.368009,636,836
66600.368009,635,832
66600.380439,634,832
66600.380439,633,836
66600.380439,633,832
66600.380439,633,832
66600.380439,633,836
66600.380439,633,832
66600.380439,633,832
66600.380439,632,836
66600.380439,631,832
66600.380439,630,832
66600.380439,629,836
66600.380439,629,832
66600.380439,628,832
66600.380439,628,836
66600.380439,628,832
66600.380439,628,832
66600.396869,627,836
66600.396869,627,832
66600.396869,628,832
66600.396869,628,836
66600.396869,627,832
66600.396869,625,832
66600.396869,625,836
66600.396869,625,832
66600.396869,624,836
66600.396869,624,832
66600.396869,623,832
66600.396869,623,836
66600.396869,622,832
66600.396869,622,832
66600.396869,621,836
66600.396869,621,832
66600.408173,620,832
66600.408173,619,836
66600.408173,619,832
66600.408173,618,832
66600.408173,617,836
66600.408173,617,832
66600.408173,617,832
66600.408173,616,836
66600.408173,616,832
66600.408173,616,832
66600.408173,616,836
66600.408173,615,832
66600.408173,615,832
66600.408173,615,836
66600.408173,615,832
66600.408173,615,832
66600.420881,615,836
66600.420881,614,832
66600.420881,613,832
66600.420881,612,836
66600.420881,613,832
66600.420881,613,832
66600.420881,613,836
66600.420881,612,832
66600.420881,611,836
66600.420881,611,832
66600.420881,611,832
66600.420881,611,836
66600.420881,611,832
66600.420881,610,832
66600.420881,610,836
66600.420881,609,832
66600.433579,609,832
66600.433579,608,836
66600.433579,608,832
66600.433579,608,832
66600.433579,608,836
66600.433579,607,832
66600.433579,607,832
66600.433579,606,836
66600.433579,606,832
66600.433579,605,832
66600.433579,605,836
66600.433579,604,832
66600.433579,604,832
66600.433579,603,836
66600.433579,602,832
66600.433579,602,832
66600.450124,601,836
66600.450124,601,832
66600.450124,601,832
66600.450124,601,836
66600.450124,601,832
66600.450124,601,832
66600.450124,601,836
66600.450124,600,832
66600.450124,600,832
66600.450124,599,836
66600.450124,599,832
66600.450124,598,836
66600.450124,599,832
66600.450124,599,832
66600.450124,599,836
66600.450124,599,832
66600.46153100001,599,832
66600.46153100001,599,836
66600.46153100001,598,832
66600.46153100001,597,832
66600.46153100001,597,836
66600.46153100001,597,832
66600.46153100001,597,832
66600.46153100001,597,836
66600.46153100001,597,832
66600.46153100001,596,832
66600.46153100001,596,836
66600.46153100001,595,832
66600.46153100001,595,832
66600.46153100001,594,836
66600.46153100001,593,832
66600.46153100001,594,832
66600.47503,593,836
66600.47503,593,832
66600.47503,593,832
66600.47503,593,836
66600.47503,593,832
66600.47503,593,832
66600.47503,592,836
66600.47503,592,832
66600.47503,593,836
66600.47503,592,832
66600.47503,592,832
66600.47503,592,836
66600.47503,592,832
66600.47503,592,832
66600.47503,592,836
66600.47503,591,832
66600.486337,591,832
66600.486337,590,836
66600.486337,590,832
66600.486337,590,832
66600.486337,588,836
66600.486337,588,832
66600.486337,587,832
66600.486337,587,836
66600.486337,587,832
66600.486337,586,832
66600.486337,586,836
66600.486337,586,832
66600.486337,585,832
66600.486337,585,836
66600.486337,584,832
66600.486337,585,832
66600.50259,585,836
66600.50259,585,832
66600.50259,584,832
66600.50259,584,836
66600.50259,584,844
66600.50259,583,820
66600.50259,583,836
66600.50259,582,832
66600.50259,582,832
66600.50259,582,836
66600.50259,581,832
66600.50259,582,836
66600.50259,581,832
66600.50259,581,832
66600.50259,580,836
66600.50259,580,832
66600.515099,580,832
66600.515099,580,836
66600.515099,579,832
66600.515099,579,832
66600.515099,578,836
66600.515099,578,832
66600.515099,578,832
66600.515099,578,836
66600.515099,578,832
66600.515099,577,832
66600.515099,577,836
66600.515099,577,832
66600.515099,576,832
66600.515099,576,836
66600.515099,577,832
66600.515099,576,832
66600.527562,576,836
66600.527562,575,832
66600.527562,575,832
66600.527562,575,836
66600.527562,576,832
66600.527562,576,832
66600.527562,575,836
66600.527562,576,832
66600.527562,576,836
66600.527562,576,832
66600.527562,576,832
66600.527562,576,836
66600.527562,576,832
66600.527562,576,832
66600.527562,576,836
66600.527562,575,832
66600.540243,574,832
66600.540243,574,836
66600.540243,573,832
66600.540243,574,832
66600.540243,574,836
66600.540243,573,832
66600.540243,573,832
66600.540243,572,836
66600.540243,572,832
66600.540243,572,832
66600.540243,572,836
66600.540243,572,832
66600.540243,571,832
66600.540243,571,836
66600.540243,572,832
66600.540243,573,832
66600.556583,573,836
66600.556583,572,832
66600.556583,573,832
66600.556583,573,836
66600.556583,572,832
66600.556583,572,832
66600.556583,572,836
66600.556583,572,832
66600.556583,572,836
66600.556583,572,832
66600.556583,571,832
66600.556583,572,836
66600.556583,572,832
66600.556583,571,832
66600.556583,571,836
66600.556583,570,832
66600.56963099999,569,832
66600.56963099999,569,836
66600.56963099999,569,832
66600.56963099999,569,832
66600.56963099999,569,836
66600.56963099999,569,832
66600.56963099999,569,832
66600.56963099999,568,836
66600.56963099999,568,832
66600.56963099999,568,832
66600.56963099999,568,836
66600.56963099999,568,832
66600.56963099999,568,832
66600.56963099999,567,836
66600.56963099999,567,832
66600.56963099999,567,832
66600.580589,566,836
66600.580589,566,832
66600.580589,566,832
66600.580589,565,836
66600.580589,565,832
66600.580589,566,832
66600.580589,565,836
66600.580589,565,832
66600.580589,565,832
66600.580589,565,836
66600.580589,564,832
66600.580589,564,836
66600.580589,563,832
66600.580589,563,832
66600.580589,563,836
66600.580589,563,832
66600.593234,563,832
66600.593234,563,836
66600.593234,563,832
66600.593234,563,832
66600.593234,562,836
66600.593234,562,832
66600.593234,561,832
66600.593234,561,836
66600.593234,561,832
66600.593234,561,832
66600.593234,561,836
66600.593234,561,832
66600.593234,562,832
66600.593234,570,836
66600.593234,572,832
66600.593234,571,832
66600.609695,570,836
66600.609695,570,832
66600.609695,569,832
66600.609695,569,836
66600.609695,568,832
66600.609695,566,832
66600.609695,565,836
66600.609695,564,832
66600.609695,564,836
66600.609695,563,832
66600.609695,562,832
66600.609695,562,836
66600.609695,562,832
66600.609695,562,832
66600.609695,563,836
66600.609695,563,832
66600.62221100001,564,832
66600.62221100001,564,836
66600.62221100001,564,832
66600.62221100001,564,832
66600.62221100001,563,836
66600.62221100001,562,832
66600.62221100001,562,832
66600.62221100001,562,836
66600.62221100001,562,832
66600.62221100001,563,832
66600.62221100001,567,836
66600.62221100001,566,832
66600.62221100001,566,832
66600.62221100001,565,836
66600.62221100001,564,832
66600.62221100001,565,832
66600.63361,564,836
66600.63361,564,832
66600.63361,564,832
66600.63361,564,836
66600.63361,564,832
66600.63361,564,832
66600.63361,564,836
66600.63361,563,832
66600.63361,564,832
66600.63361,564,836
66600.63361,565,832
66600.63361,565,836
66600.63361,565,832
66600.63361,565,832
66600.63361,565,836
66600.63361,565,832
66600.650071,566,832
66600.650071,566,836
66600.650071,567,832
66600.650071,567,832
66600.650071,567,836
66600.650071,567,832
66600.650071,567,832
66600.650071,566,836
66600.650071,566,832
66600.650071,566,832
66600.650071,567,836
66600.650071,566,832
66600.650071,566,832
66600.650071,566,836
66600.650071,566,832
66600.650071,566,832
66600.663072,565,836
66600.663072,565,832
66600.663072,564,832
66600.663072,563,836
66600.663072,562,832
66600.663072,562,832
66600.663072,562,836
66600.663072,561,832
66600.663072,561,836
66600.663072,561,832
66600.663072,561,832
66600.663072,561,836
66600.663072,561,832
66600.663072,560,832
66600.663072,560,836
66600.663072,560,832
66600.675596,560,832
66600.675596,559,836
66600.675596,559,832
66600.675596,559,832
66600.675596,558,836
66600.675596,557,832
66600.675596,557,832
66600.675596,556,836
66600.675596,555,832
66600.675596,555,832
66600.675596,555,836
66600.675596,555,832
66600.675596,555,832
66600.675596,555,836
66600.675596,555,832
66600.675596,555,832
66600.68756199999,556,836
66600.68756199999,556,832
66600.68756199999,557,832
66600.68756199999,557,836
66600.68756199999,558,832
66600.68756199999,558,832
66600.68756199999,558,836
66600.68756199999,558,832
66600.68756199999,558,836
66600.68756199999,559,832
66600.68756199999,559,832
66600.68756199999,559,848
66600.68756199999,560,820
66600.68756199999,561,832
66600.68756199999,561,836
66600.68756199999,561,832
66600.703921,561,832
66600.703921,561,836
66600.703921,561,832
66600.703921,561,832
66600.703921,561,836
66600.703921,561,832
66600.703921,561,832
66600.703921,562,836
66600.703921,562,832
66600.703921,562,832
66600.703921,562,836
66600.703921,562,832
66600.703921,561,832
66600.703921,562,836
66600.703921,562,832
66600.703921,561,832
66600.71629699999,561,836
66600.71629699999,561,832
66600.71629699999,562,832
66600.71629699999,562,836
66600.71629699999,562,832
66600.71629699999,562,832
66600.71629699999,562,836
66600.71629699999,562,832
66600.71629699999,563,836
66600.71629699999,563,832
66600.71629699999,564,832
66600.71629699999,565,836
66600.71629699999,565,832
66600.71629699999,565,832
66600.71629699999,566,836
66600.71629699999,566,832
66600.727898,567,832
66600.727898,567,836
66600.727898,567,832
66600.727898,566,832
66600.727898,566,836
66600.727898,566,832
66600.727898,566,832
66600.727898,567,836
66600.727898,567,832
66600.727898,568,832
66600.727898,569,836
66600.727898,570,832
66600.727898,570,832
66600.727898,569,836
66600.727898,569,832
66600.727898,568,832
66600.745138,568,836
66600.745138,568,832
66600.745138,569,832
66600.745138,569,836
66600.745138,569,832
66600.745138,569,832
66600.745138,569,836
66600.745138,569,832
66600.745138,571,832
66600.745138,572,836
66600.745138,574,832
66600.745138,575,836
66600.745138,576,832
66600.745138,578,832
66600.745138,580,836
66600.745138,580,832
66600.757136,580,832
66600.757136,580,836
66600.757136,580,832
66600.757136,579,832
66600.757136,578,836
66600.757136,578,832
66600.757136,577,832
66600.757136,576,836
66600.757136,575,832
66600.757136,575,832
66600.757136,574,836
66600.757136,574,832
66600.757136,575,832
66600.757136,575,836
66600.757136,575,832
66600.757136,576,832
66600.76964299999,576,836
66600.76964299999,577,832
66600.76964299999,578,832
66600.76964299999,578,836
66600.76964299999,578,832
66600.76964299999,578,832
66600.76964299999,577,836
66600.76964299999,577,832
66600.76964299999,576,832
66600.76964299999,575,836
66600.76964299999,575,832
66600.76964299999,574,836
66600.76964299999,574,832
66600.76964299999,574,832
66600.76964299999,574,836
66600.76964299999,574,832
66600.780891,574,832
66600.780891,574,836
66600.780891,573,832
66600.780891,571,832
66600.780891,569,836
66600.780891,566,832
66600.780891,564,832
66600.780891,562,836
66600.780891,561,832
66600.780891,560,832
66600.780891,559,836
66600.780891,557,832
66600.780891,555,832
66600.780891,553,836
66600.780891,550,832
66600.780891,547,832
66600.797756,544,836
66600.797756,540,832
66600.797756,537,832
66600.797756,535,836
66600.797756,533,832
66600.797756,531,832
66600.797756,529,836
66600.797756,527,832
66600.797756,525,832
66600.797756,523,836
66600.797756,520,832
66600.797756,517,836
66600.797756,513,832
66600.797756,510,832
66600.797756,506,836
66600.797756,502,832
66600.810362,497,832
66600.810362,493,836
66600.810362,491,832
66600.810362,487,832
66600.810362,484,836
66600.810362,481,832
66600.810362,477,832
66600.810362,473,836
66600.810362,469,832
66600.810362,465,832
66600.810362,462,836
66600.810362,459,832
66600.810362,456,832
66600.810362,452,836
66600.810362,449,832
66600.810362,444,832
66600.822078,440,836
66600.822078,435,832
66600.822078,430,832
66600.822078,426,836
66600.822078,421,832
66600.822078,417,832
66600.822078,414,836
66600.822078,411,832
66600.822078,406,836
66600.822078,403,832
66600.822078,399,832
66600.822078,395,836
66600.822078,392,832
66600.822078,389,832
66600.822078,385,836
66600.822078,382,832
66600.834718,378,832
66600.834718,374,836
66600.834718,369,832
66600.834718,365,832
66600.834718,361,836
66600.834718,358,832
66600.834718,354,832
66600.834718,351,836
66600.834718,347,832
66600.834718,343,832
66600.834718,340,836
66600.834718,335,832
66600.834718,331,832
66600.834718,326,836
66600.834718,323,832
66600.834718,319,832
66600.851291,314,836
66600.851291,310,832
66600.851291,306,832
66600.851291,303,836
66600.851291,300,832
66600.851291,296,832
66600.851291,293,836
66600.851291,289,836
66600.851291,286,828
66600.851291,283,836
66600.851291,277,832
66600.851291,273,836
66600.851291,268,832
66600.851291,264,832
66600.851291,260,836
66600.851291,256,832
66600.863904,252,832
66600.863904,247,836
66600.863904,244,832
66600.863904,240,832
66600.863904,237,836
66600.863904,233,832
66600.863904,229,832
66600.863904,226,836
66600.863904,221,832
66600.863904,218,832
66600.863904,214,836
66600.863904,210,832
66600.863904,207,832
66600.863904,203,836
66600.863904,199,832
66600.863904,196,832
66600.875375,192,836
66600.875375,189,832
66600.875375,186,832
66600.875375,182,836
66600.875375,179,832
66600.875375,175,832
66600.875375,171,836
66600.875375,168,832
66600.875375,164,836
66600.875375,161,832
66600.875375,158,832
66600.875375,155,836
66600.875375,151,832
66600.875375,147,832
66600.875375,144,836
66600.875375,142,832
66600.891909,139,832
66600.891909,135,836
66600.891909,132,832
66600.891909,129,832
66600.891909,126,836
66600.891909,123,832
66600.891909,120,832
66600.891909,117,836
66600.891909,114,832
66600.891909,111,832
66600.891909,108,836
66600.891909,105,832
66600.891909,103,832
66600.891909,101,836
66600.891909,98,832
66600.891909,96,832
66600.891909,93,836
66600.904249,90,832
66600.904249,87,832
66600.904249,85,836
66600.904249,83,832
66600.904249,80,832
66600.904249,78,836
66600.904249,76,832
66600.904249,74,836
66600.904249,73,836
66600.904249,71,832
66600.904249,69,832
66600.904249,68,832
66600.904249,67,832
66600.904249,64,836
66600.904249,62,832
66600.904249,60,832
66600.904249,59,836
66600.904249,57,832
66600.92053,56,832
66600.92053,54,836
66600.92053,53,832
66600.92053,51,832
66600.92053,49,836
66600.92053,48,832
66600.92053,46,840
66600.92053,44,828
66600.92053,42,832
66600.92053,41,832
66600.92053,39,836
66600.92053,38,832
66600.92053,37,832
66600.92053,36,836
66600.92053,35,832
66600.92053,34,832
66600.92053,33,836
66600.92053,31,832
66600.936621,31,832
66600.936621,30,836
66600.936621,30,832
66600.936621,29,836
66600.936621,28,836
66600.936621,28,828
66600.936621,27,836
66600.936621,27,832
66600.936621,26,832
66600.936621,25,836
66600.936621,23,832
66600.936621,22,832
66600.936621,21,836
66600.936621,19,832
66600.936621,19,832
66600.936621,18,836
66600.936621,17,832
66600.936621,17,832
66600.936621,15,836
66600.949429,15,832
66600.949429,15,840
66600.949429,15,828
66600.949429,15,832
66600.949429,16,832
66600.949429,16,836
66600.949429,16,832
66600.949429,16,832
66600.949429,16,836
66600.949429,15,832
66600.949429,15,832
66600.949429,15,836
66600.949429,14,832
66600.949429,14,832
66600.949429,14,836
66600.949429,14,832
66600.949429,14,836
66600.949429,15,836
66600.965834,13,828
66600.965834,14,836
66600.965834,13,832
66600.965834,14,832
66600.965834,13,836
66600.965834,14,832
66600.965834,15,832
66600.965834,15,836
66600.965834,15,832
66600.965834,16,832
66600.965834,16,836
66600.965834,17,832
66600.965834,17,832
66600.965834,17,836
66600.965834,18,836
66600.965834,18,832
66600.965834,19,836
66600.965834,20,836
66600.978543,20,824
66600.978543,21,836
66600.978543,22,832
66600.978543,23,832
66600.978543,23,836
66600.978543,24,832
66600.978543,24,832
66600.978543,24,836
66600.978543,24,832
66600.978543,25,832
66600.978543,25,836
66600.978543,25,832
66600.978543,26,836
66600.978543,27,832
66600.978543,27,836
66600.978543,27,836
66600.978543,27,828
66600.978543,27,832
66600.978543,28,836
66600.99892700001,28,832
66600.99892700001,29,840
66600.99892700001,29,832
66600.99892700001,29,832
66600.99892700001,30,832
66600.99892700001,31,832
66600.99892700001,31,832
66600.99892700001,32,832
66600.99892700001,32,836
66600.99892700001,33,832
66600.99892700001,34,832
66600.99892700001,34,840
66600.99892700001,35,832
66600.99892700001,35,828
66600.99892700001,37,836
66600.99892700001,38,832
66600.99892700001,40,832
66600.99892700001,41,840
66601.011431,41,832
66601.011431,43,832
66601.011431,44,840
66601.011431,45,824
66601.011431,47,832
66601.011431,48,836
66601.011431,50,832
66601.011431,51,836
66601.011431,52,832
66601.011431,52,836
66601.011431,54,832
66601.011431,55,832
66601.011431,57,832
66601.011431,57,836
66601.011431,58,832
66601.011431,60,840
66601.011431,61,832
66601.011431,62,832
66601.026904,63,832
66601.026904,64,832
66601.026904,65,832
66601.026904,67,832
66601.026904,68,836
66601.026904,70,832
66601.026904,71,832
66601.026904,72,840
66601.026904,74,828
66601.026904,75,832
66601.026904,76,836
66601.026904,77,832
66601.026904,78,832
66601.026904,81,840
66601.026904,82,832
66601.026904,83,832
66601.026904,84,832
66601.026904,85,832
66601.039533,87,832
66601.039533,88,836
66601.039533,89,832
66601.039533,90,836
66601.039533,91,832
66601.039533,92,836
66601.039533,93,832
66601.039533,94,832
66601.039533,95,832
66601.039533,96,840
66601.039533,97,828
66601.039533,99,840
66601.039533,100,832
66601.039533,100,828
66601.039533,101,832
66601.039533,102,836
66601.039533,103,832
66601.039533,104,832
66601.056023,105,836
66601.056023,107,832
66601.056023,108,832
66601.056023,109,836
66601.056023,111,832
66601.056023,112,832
66601.056023,114,836
66601.056023,115,832
66601.056023,116,832
66601.056023,117,836
66601.056023,118,832
66601.056023,120,832
66601.056023,121,836
66601.056023,122,832
66601.056023,123,832
66601.056023,124,836
66601.06870799999,126,832
66601.06870799999,127,836
66601.06870799999,129,832
66601.06870799999,130,832
66601.06870799999,131,836
66601.06870799999,132,832
66601.06870799999,133,832
66601.06870799999,134,836
66601.06870799999,136,832
66601.06870799999,137,832
66601.06870799999,138,836
66601.06870799999,140,832
66601.06870799999,141,832
66601.06870799999,143,836
66601.06870799999,145,832
66601.06870799999,147,832
66601.080197,148,836
66601.080197,149,832
66601.080197,150,832
66601.080197,151,836
66601.080197,152,832
66601.080197,157,832
66601.080197,169,836
66601.080197,169,832
66601.080197,168,832
66601.080197,168,836
66601.080197,168,832
66601.080197,168,832
66601.080197,168,836
66601.080197,168,832
66601.080197,168,832
66601.080197,169,836
66601.0969,169,832
66601.0969,170,836
66601.0969,170,832
66601.0969,171,832
66601.0969,171,836
66601.0969,172,832
66601.0969,172,832
66601.0969,173,836
66601.0969,174,832
66601.0969,174,832
66601.0969,175,836
66601.0969,176,832
66601.0969,177,832
66601.0969,178,836
66601.0969,179,832
66601.0969,182,832
66601.109922,182,836
66601.109922,183,832
66601.109922,183,832
66601.109922,184,836
66601.109922,185,832
66601.109922,186,832
66601.109922,187,836
66601.109922,188,832
66601.109922,189,832
66601.109922,190,836
66601.109922,191,832
66601.109922,192,832
66601.109922,193,836
66601.109922,195,832
66601.109922,196,832
66601.109922,197,836
66601.12109,198,832
66601.12109,199,836
66601.12109,199,832
66601.12109,200,832
66601.12109,201,836
66601.12109,202,832
66601.12109,203,832
66601.12109,204,836
66601.12109,205,832
66601.12109,206,832
66601.12109,207,836
66601.12109,207,832
66601.12109,208,832
66601.12109,209,836
66601.12109,210,832
66601.12109,212,832
66601.133797,213,836
66601.133797,214,832
66601.133797,215,832
66601.133797,215,836
66601.133797,217,832
66601.133797,216,832
66601.133797,217,836
66601.133797,217,832
66601.133797,218,832
66601.133797,220,836
66601.133797,220,832
66601.133797,221,832
66601.133797,223,836
66601.133797,224,832
66601.133797,225,832
66601.133797,225,836
66601.150079,226,832
66601.150079,226,836
66601.150079,227,832
66601.150079,227,832
66601.150079,228,836
66601.150079,228,832
66601.150079,229,832
66601.150079,230,836
66601.150079,230,832
66601.150079,231,832
66601.150079,231,836
66601.150079,232,832
66601.150079,233,832
66601.150079,234,836
66601.150079,235,832
66601.150079,235,832
66601.162845,236,836
66601.162845,238,832
66601.162845,239,832
66601.162845,241,836
66601.162845,241,832
66601.162845,242,832
66601.162845,243,836
66601.162845,243,832
66601.162845,244,832
66601.162845,244,836
66601.162845,245,832
66601.162845,246,832
66601.162845,246,836
66601.162845,247,832
66601.162845,246,832
66601.162845,247,836
66601.174101,248,832
66601.174101,248,832
66601.174101,249,836
66601.174101,250,832
66601.174101,250,836
66601.174101,251,832
66601.174101,252,832
66601.174101,253,836
66601.174101,253,832
66601.174101,254,832
66601.174101,255,836
66601.174101,255,832
66601.174101,255,832
66601.174101,256,836
66601.174101,256,832
66601.174101,257,832
66601.191717,257,836
66601.191717,258,832
66601.191717,258,832
66601.191717,258,836
66601.191717,259,832
66601.191717,260,832
66601.191717,260,836
66601.191717,262,832
66601.191717,263,832
66601.191717,263,836
66601.191717,263,832
66601.191717,264,832
66601.191717,265,836
66601.191717,265,832
66601.191717,266,832
66601.191717,267,836
66601.203182,267,832
66601.203182,268,832
66601.203182,269,836
66601.203182,268,844
66601.203182,269,824
66601.203182,269,832
66601.203182,270,832
66601.203182,270,836
66601.203182,270,832
66601.203182,271,832
66601.203182,272,836
66601.203182,273,832
66601.203182,274,832
66601.203182,275,836
66601.203182,275,832
66601.203182,276,832
66601.215686,277,836
66601.215686,278,832
66601.215686,279,832
66601.215686,280,836
66601.215686,281,832
66601.215686,281,832
66601.215686,281,836
66601.215686,281,832
66601.215686,282,832
66601.215686,283,836
66601.215686,284,832
66601.215686,285,832
66601.215686,285,836
66601.215686,286,832
66601.215686,286,832
66601.215686,286,836
66601.228437,286,832
66601.228437,287,832
66601.228437,287,836
66601.228437,288,832
66601.228437,288,836
66601.228437,288,832
66601.228437,289,832
66601.228437,289,836
66601.228437,290,832
66601.228437,290,832
66601.228437,290,836
66601.228437,291,832
66601.228437,292,832
66601.228437,293,836
66601.228437,294,832
66601.228437,296,832
66601.239846,297,836
66601.239846,297,832
66601.239846,298,832
66601.239846,298,836
66601.239846,299,832
66601.239846,300,832
66601.239846,300,836
66601.239846,301,832
66601.239846,302,832
66601.239846,303,836
66601.239846,304,832
66601.239846,305,832
66601.239846,305,836
66601.239846,307,832
66601.239846,308,832
66601.239846,309,836
66601.256156,309,832
66601.256156,310,836
66601.256156,311,832
66601.256156,312,832
66601.256156,312,836
66601.256156,313,832
66601.256156,313,832
66601.256156,314,836
66601.256156,315,832
66601.256156,315,832
66601.256156,315,836
66601.256156,315,832
66601.256156,316,832
66601.256156,316,836
66601.256156,315,832
66601.256156,315,832
66601.268795,315,836
66601.268795,316,832
66601.268795,316,832
66601.268795,316,836
66601.268795,316,832
66601.268795,317,832
66601.268795,317,836
66601.268795,317,832
66601.268795,317,832
66601.268795,317,836
66601.268795,318,832
66601.268795,317,832
66601.268795,318,836
66601.268795,318,832
66601.268795,317,832
66601.268795,317,836
66601.281367,317,832
66601.281367,317,832
66601.281367,317,836
66601.281367,317,832
66601.281367,317,836
66601.281367,317,832
66601.281367,317,832
66601.281367,317,836
66601.281367,317,832
66601.281367,316,832
66601.281367,317,836
66601.281367,317,832
66601.281367,317,832
66601.281367,317,836
66601.281367,318,832
66601.281367,318,832
66601.29282,319,836
66601.29282,320,832
66601.29282,320,832
66601.29282,322,836
66601.29282,322,832
66601.29282,323,832
66601.29282,323,836
66601.29282,324,832
66601.29282,324,832
66601.29282,324,836
66601.29282,324,832
66601.29282,325,832
66601.29282,325,836
66601.29282,326,832
66601.29282,327,832
66601.29282,327,836
66601.30571,327,832
66601.30571,327,836
66601.30571,328,832
66601.30571,329,832
66601.30571,329,836
66601.30571,329,832
66601.30571,329,832
66601.30571,330,836
66601.30571,330,832
66601.30571,331,832
66601.30571,332,836
66601.30571,333,832
66601.30571,334,832
66601.30571,335,836
66601.30571,335,832
66601.30571,336,832
66601.322252,337,836
66601.322252,338,832
66601.322252,338,832
66601.322252,338,836
66601.322252,339,832
66601.322252,339,832
66601.322252,340,836
66601.322252,340,832
66601.322252,341,832
66601.322252,341,836
66601.322252,341,832
66601.322252,342,832
66601.322252,342,836
66601.322252,342,832
66601.322252,342,832
66601.322252,343,836
66601.33470400001,344,832
66601.33470400001,345,836
66601.33470400001,345,832
66601.33470400001,345,832
66601.33470400001,346,836
66601.33470400001,346,832
66601.33470400001,347,832
66601.33470400001,347,836
66601.33470400001,347,832
66601.33470400001,348,832
66601.33470400001,348,836
66601.33470400001,349,832
66601.33470400001,350,832
66601.33470400001,350,836
66601.33470400001,352,832
66601.33470400001,352,832
66601.346213,353,836
66601.346213,354,832
66601.346213,355,832
66601.346213,355,836
66601.346213,355,832
66601.346213,356,832
66601.346213,356,836
66601.346213,357,832
66601.346213,358,832
66601.346213,359,836
66601.346213,359,832
66601.346213,360,832
66601.346213,360,836
66601.346213,361,832
66601.346213,362,832
66601.346213,362,836
66601.358846,363,832
66601.358846,363,832
66601.358846,364,836
66601.358846,365,832
66601.358846,365,836
66601.358846,365,832
66601.358846,365,832
66601.358846,365,836
66601.358846,365,832
66601.358846,366,832
66601.358846,366,836
66601.358846,367,832
66601.358846,368,832
66601.358846,369,836
66601.358846,370,832
66601.358846,370,832
66601.37535,370,836
66601.37535,371,832
66601.37535,372,832
66601.37535,372,836
66601.37535,373,832
66601.37535,373,832
66601.37535,374,836
66601.37535,373,832
66601.37535,373,832
66601.37535,373,836
66601.37535,373,832
66601.37535,373,832
66601.37535,375,836
66601.37535,375,832
66601.37535,375,832
66601.37535,375,836
66601.38800199999,375,832
66601.38800199999,376,836
66601.38800199999,376,832
66601.38800199999,377,832
66601.38800199999,378,836
66601.38800199999,378,832
66601.38800199999,378,832
66601.38800199999,378,836
66601.38800199999,379,832
66601.38800199999,380,832
66601.38800199999,380,848
66601.38800199999,381,820
66601.38800199999,381,832
66601.38800199999,382,836
66601.38800199999,383,832
66601.38800199999,383,832
66601.400605,384,836
66601.400605,384,832
66601.400605,384,832
66601.400605,385,836
66601.400605,385,832
66601.400605,388,832
66601.400605,391,836
66601.400605,392,832
66601.400605,394,832
66601.400605,395,836
66601.400605,396,832
66601.400605,397,832
66601.400605,399,836
66601.400605,400,832
66601.400605,401,832
66601.400605,402,836
66601.411999,404,832
66601.411999,406,832
66601.411999,407,836
66601.411999,408,832
66601.411999,409,836
66601.411999,410,832
66601.411999,411,832
66601.411999,413,836
66601.411999,415,832
66601.411999,418,832
66601.411999,421,836
66601.411999,424,832
66601.411999,429,832
66601.411999,433,836
66601.411999,437,832
66601.411999,442,832
66601.428588,447,836
66601.428588,452,832
66601.428588,457,832
66601.428588,462,836
66601.428588,467,832
66601.428588,472,832
66601.428588,478,836
66601.428588,484,832
66601.428588,489,832
66601.428588,495,836
66601.428588,502,832
66601.428588,508,832
66601.428588,515,836
66601.428588,522,832
66601.428588,528,832
66601.428588,536,836
66601.44112,542,832
66601.44112,549,832
66601.44112,555,836
66601.44112,561,832
66601.44112,569,836
66601.44112,576,832
66601.44112,583,832
66601.44112,589,836
66601.44112,596,832
66601.44112,602,832
66601.44112,609,836
66601.44112,617,832
66601.44112,624,832
66601.44112,630,836
66601.44112,636,832
66601.44112,643,832
66601.45376799999,650,836
66601.45376799999,656,832
66601.45376799999,663,832
66601.45376799999,669,836
66601.45376799999,674,832
66601.45376799999,679,832
66601.45376799999,684,836
66601.45376799999,689,832
66601.45376799999,694,832
66601.45376799999,699,836
66601.45376799999,704,832
66601.45376799999,708,832
66601.45376799999,712,836
66601.45376799999,716,832
66601.45376799999,720,832
66601.45376799999,724,836
66601.468963,728,832
66601.468963,732,836
66601.468963,735,832
66601.468963,739,832
66601.468963,742,836
66601.468963,744,832
66601.468963,746,832
66601.468963,749,836
66601.468963,751,832
66601.468963,754,832
66601.468963,756,836
66601.468963,758,832
66601.468963,760,832
66601.468963,762,836
66601.468963,763,832
66601.468963,765,832
66601.48164,766,836
66601.48164,767,832
66601.48164,768,832
66601.48164,769,836
66601.48164,769,832
66601.48164,770,832
66601.48164,770,836
66601.48164,770,832
66601.48164,770,832
66601.48164,770,836
66601.48164,771,832
66601.48164,772,832
66601.48164,771,836
66601.48164,770,832
66601.48164,769,832
66601.48164,768,836
66601.494158,768,832
66601.494158,767,832
66601.494158,766,836
66601.494158,765,832
66601.494158,764,836
66601.494158,763,832
66601.494158,761,832
66601.494158,760,836
66601.494158,759,832
66601.494158,758,832
66601.494158,758,836
66601.494158,757,832
66601.494158,756,832
66601.494158,756,836
66601.494158,755,832
66601.494158,754,832
66601.506854,753,836
66601.506854,753,832
66601.506854,752,832
66601.506854,751,836
66601.506854,750,832
66601.506854,749,832
66601.506854,748,836
66601.506854,747,832
66601.506854,746,832
66601.506854,746,836
66601.506854,744,832
66601.506854,743,832
66601.506854,743,836
66601.506854,742,832
66601.506854,742,832
66601.506854,741,836
66601.52342099999,741,832
66601.52342099999,741,832
66601.52342099999,740,836
66601.52342099999,739,832
66601.52342099999,738,836
66601.52342099999,738,832
66601.52342099999,738,832
66601.52342099999,737,836
66601.52342099999,737,832
66601.52342099999,736,832
66601.52342099999,735,836
66601.52342099999,735,832
66601.52342099999,734,832
66601.52342099999,734,836
66601.52342099999,733,832
66601.52342099999,733,832
66601.535078,732,836
66601.535078,732,832
66601.535078,732,832
66601.535078,730,836
66601.535078,730,832
66601.535078,730,832
66601.535078,728,836
66601.535078,728,832
66601.535078,728,832
66601.535078,726,836
66601.535078,726,832
66601.535078,725,832
66601.535078,724,836
66601.535078,724,832
66601.535078,724,832
66601.535078,723,836
66601.547655,723,832
66601.547655,722,832
66601.547655,721,836
66601.547655,720,832
66601.547655,719,836
66601.547655,718,832
66601.547655,718,844
66601.547655,717,824
66601.547655,717,832
66601.547655,717,832
66601.547655,717,836
66601.547655,716,832
66601.547655,716,832
66601.547655,716,836
66601.547655,715,832
66601.547655,714,832
66601.56405,713,836
66601.56405,712,832
66601.56405,711,832
66601.56405,710,836
66601.56405,709,832
66601.56405,708,832
66601.56405,708,836
66601.56405,707,832
66601.56405,707,832
66601.56405,707,836
66601.56405,706,832
66601.56405,705,832
66601.56405,705,836
66601.56405,704,832
66601.56405,703,832
66601.56405,703,836
66601.57660100001,702,832
66601.57660100001,702,832
66601.57660100001,702,836
66601.57660100001,701,832
66601.57660100001,701,836
66601.57660100001,700,832
66601.57660100001,700,832
66601.57660100001,699,836
66601.57660100001,697,832
66601.57660100001,697,832
66601.57660100001,696,836
66601.57660100001,696,832
66601.57660100001,696,832
66601.57660100001,696,836
66601.57660100001,695,832
66601.57660100001,695,832
66601.58797600001,694,836
66601.58797600001,693,832
66601.58797600001,693,832
66601.58797600001,693,836
66601.58797600001,693,832
66601.58797600001,692,832
66601.58797600001,692,836
66601.58797600001,691,832
66601.58797600001,691,832
66601.58797600001,691,836
66601.58797600001,691,832
66601.58797600001,690,832
66601.58797600001,690,836
66601.58797600001,689,832
66601.58797600001,689,832
66601.58797600001,688,836
66601.60053499999,688,832
66601.60053499999,688,832
66601.60053499999,688,836
66601.60053499999,688,832
66601.60053499999,688,836
66601.60053499999,688,832
66601.60053499999,688,832
66601.60053499999,688,836
66601.60053499999,687,832
66601.60053499999,687,832
66601.60053499999,687,836
66601.60053499999,687,832
66601.60053499999,687,832
66601.60053499999,687,836
66601.60053499999,687,832
66601.60053499999,687,832
66601.617132,687,836
66601.617132,688,832
66601.617132,688,832
66601.617132,688,836
66601.617132,689,832
66601.617132,689,832
66601.617132,689,836
66601.617132,689,832
66601.617132,690,832
66601.617132,690,836
66601.617132,690,832
66601.617132,690,832
66601.617132,690,836
66601.617132,691,832
66601.617132,692,832
66601.617132,692,836
66601.629931,693,832
66601.629931,694,832
66601.629931,694,836
66601.629931,694,832
66601.629931,695,836
66601.629931,696,832
66601.629931,698,832
66601.629931,699,836
66601.629931,702,832
66601.629931,703,832
66601.629931,703,836
66601.629931,703,832
66601.629931,704,832
66601.629931,704,836
66601.629931,704,832
66601.629931,707,832
66601.641496,710,836
66601.641496,712,832
66601.641496,710,832
66601.641496,709,836
66601.641496,711,832
66601.641496,716,832
66601.641496,720,836
66601.641496,722,832
66601.641496,723,832
66601.641496,723,836
66601.641496,724,832
66601.641496,729,832
66601.641496,735,836
66601.641496,738,832
66601.641496,739,832
66601.641496,740,836
66601.657794,741,832
66601.657794,744,832
66601.657794,746,836
66601.657794,750,832
66601.657794,756,836
66601.657794,763,832
66601.657794,768,832
66601.657794,769,836
66601.657794,771,832
66601.657794,774,832
66601.657794,779,836
66601.657794,783,832
66601.657794,788,832
66601.657794,795,836
66601.657794,803,832
66601.657794,811,832
66601.67065100001,817,836
66601.67065100001,821,832
66601.67065100001,826,832
66601.67065100001,832,836
66601.67065100001,838,832
66601.67065100001,844,832
66601.67065100001,851,836
66601.67065100001,860,832
66601.67065100001,872,832
66601.67065100001,881,836
66601.67065100001,884,832
66601.67065100001,886,832
66601.67065100001,892,836
66601.67065100001,898,832
66601.67065100001,904,832
66601.67065100001,911,836
66601.682161,918,832
66601.682161,923,832
66601.682161,930,836
66601.682161,937,832
66601.682161,943,836
66601.682161,951,832
66601.682161,958,832
66601.682161,960,836
66601.682161,962,832
66601.682161,966,832
66601.682161,971,836
66601.682161,976,832
66601.682161,979,832
66601.682161,982,836
66601.682161,986,832
66601.682161,990,832
66601.694917,992,836
66601.694917,994,832
66601.694917,998,832
66601.694917,1005,836
66601.694917,1011,832
66601.694917,1012,832
66601.694917,1012,836
66601.694917,1014,832
66601.694917,1015,832
66601.694917,1017,836
66601.694917,1018,832
66601.694917,1021,832
66601.694917,1023,836
66601.694917,1023,832
66601.707519,1023,832
66601.707519,1023,836
66601.707519,1023,832
66601.707519,1023,832
66601.707519,1022,836
66601.707519,1023,832
66601.707519,1022,836
66601.707519,1023,832
66601.707519,1023,832
66601.707519,1023,836
66601.707519,1023,832
66601.707519,1023,832
66601.707519,1023,836
66601.707519,1023,832
66601.707519,1023,832
66601.715066,1023,836
66601.715066,1023,832
66601.715066,1023,832
66601.715066,1023,836
66601.715066,1023,832
66601.715066,1023,832
66601.715066,1023,836
66601.715066,1023,832
66601.715066,1023,832
66601.715066,1022,836
66601.715066,1022,832
66601.715066,1022,832
66601.715066,1023,836
66601.715066,1022,832
66601.727572,1021,832
66601.727572,1022,836
66601.727572,1020,832
66601.727572,1020,832
66601.727572,1020,836
66601.727572,1020,832
66601.727572,1019,836
66601.727572,1019,832
66601.727572,1018,832
66601.727572,1016,836
66601.727572,1016,832
66601.727572,1014,832
66601.727572,1013,836
66601.727572,1010,832
66601.740171,1008,832
66601.740171,1006,836
66601.740171,1004,832
66601.740171,1001,832
66601.740171,998,840
66601.740171,995,828
66601.740171,993,832
66601.740171,990,836
66601.740171,988,832
66601.740171,984,832
66601.740171,980,836
66601.740171,977,832
66601.740171,973,832
66601.740171,968,836
66601.740171,964,832
66601.740171,959,832
66601.756743,955,836
66601.756743,950,832
66601.756743,945,832
66601.756743,939,836
66601.756743,934,832
66601.756743,928,832
66601.756743,922,836
66601.756743,916,832
66601.756743,910,832
66601.756743,904,836
66601.756743,897,832
66601.756743,891,836
66601.756743,884,832
66601.756743,877,832
66601.756743,870,836
66601.756743,863,832
66601.768115,856,832
66601.768115,849,836
66601.768115,842,832
66601.768115,835,832
66601.768115,828,836
66601.768115,820,832
66601.768115,813,832
66601.768115,806,836
66601.768115,799,832
66601.768115,794,832
66601.768115,787,836
66601.768115,781,832
66601.768115,773,832
66601.768115,767,836
66601.768115,761,832
66601.768115,754,832
66601.780882,748,836
66601.780882,741,832
66601.780882,735,832
66601.780882,729,836
66601.780882,723,832
66601.780882,717,832
66601.780882,711,836
66601.780882,705,832
66601.780882,700,832
66601.780882,695,836
66601.780882,689,832
66601.780882,685,836
66601.780882,680,832
66601.780882,676,832
66601.780882,671,836
66601.780882,666,832
66601.797439,662,832
66601.797439,658,836
66601.797439,653,832
66601.797439,649,832
66601.797439,645,836
66601.797439,641,832
66601.797439,637,832
66601.797439,633,836
66601.797439,628,832
66601.797439,625,832
66601.797439,621,836
66601.797439,618,832
66601.797439,615,832
66601.797439,611,836
66601.797439,608,832
66601.797439,605,832
66601.809959,602,836
66601.809959,599,832
66601.809959,596,832
66601.809959,593,836
66601.809959,590,832
66601.809959,588,832
66601.809959,585,836
66601.809959,583,832
66601.809959,580,836
66601.809959,578,832
66601.809959,576,832
66601.809959,574,836
66601.809959,572,832
66601.809959,570,832
66601.809959,567,836
66601.809959,565,832
66601.821403,563,832
66601.821403,561,836
66601.821403,559,832
66601.821403,557,832
66601.821403,555,836
66601.821403,553,832
66601.821403,551,832
66601.821403,549,836
66601.821403,548,832
66601.821403,546,832
66601.821403,544,836
66601.821403,542,832
66601.821403,541,832
66601.821403,539,836
66601.821403,538,832
66601.821403,536,832
66601.833946,534,836
66601.833946,531,832
66601.833946,529,832
66601.833946,527,836
66601.833946,526,832
66601.833946,524,832
66601.833946,522,836
66601.833946,520,832
66601.833946,519,832
66601.833946,518,836
66601.833946,517,832
66601.833946,516,836
66601.833946,514,832
66601.833946,513,832
66601.833946,512,836
66601.833946,511,832
66601.85045099999,509,832
66601.85045099999,507,836
66601.85045099999,505,832
66601.85045099999,504,832
66601.85045099999,503,836
66601.85045099999,501,832
66601.85045099999,501,832
66601.85045099999,499,836
66601.85045099999,498,832
66601.85045099999,497,832
66601.85045099999,496,836
66601.85045099999,496,832
66601.85045099999,495,832
66601.85045099999,494,836
66601.85045099999,492,832
66601.85045099999,492,832
66601.863051,490,836
66601.863051,490,832
66601.863051,489,832
66601.863051,489,836
66601.863051,488,832
66601.863051,487,832
66601.863051,487,836
66601.863051,487,832
66601.863051,487,836
66601.863051,487,832
66601.863051,487,832
66601.863051,486,836
66601.863051,484,832
66601.863051,484,832
66601.863051,482,836
66601.863051,482,832
66601.875516,481,832
66601.875516,482,836
66601.875516,481,832
66601.875516,480,832
66601.875516,480,836
66601.875516,480,832
66601.875516,479,832
66601.875516,478,836
66601.875516,478,832
66601.875516,478,832
66601.875516,477,836
66601.875516,475,832
66601.875516,474,832
66601.875516,473,836
66601.875516,473,832
66601.875516,472,832
66601.89198,471,836
66601.89198,470,832
66601.89198,469,832
66601.89198,468,836
66601.89198,468,832
66601.89198,467,832
66601.89198,467,836
66601.89198,467,832
66601.89198,466,836
66601.89198,465,832
66601.89198,465,832
66601.89198,465,836
66601.89198,464,832
66601.89198,464,832
66601.89198,463,836
66601.89198,462,832
66601.90341300001,461,844
66601.90341300001,461,824
66601.90341300001,460,832
66601.90341300001,459,832
66601.90341300001,458,836
66601.90341300001,458,832
66601.90341300001,457,832
66601.90341300001,457,836
66601.90341300001,456,832
66601.90341300001,456,832
66601.90341300001,455,836
66601.90341300001,455,832
66601.90341300001,455,832
66601.90341300001,455,836
66601.90341300001,455,832
66601.90341300001,456,832
66601.915997,457,836
66601.915997,456,832
66601.915997,456,832
66601.915997,456,836
66601.915997,455,832
66601.915997,455,832
66601.915997,455,836
66601.915997,455,832
66601.915997,455,832
66601.915997,455,836
66601.915997,455,832
66601.915997,454,836
66601.915997,453,832
66601.915997,453,832
66601.915997,453,836
66601.915997,453,832
66601.928517,453,832
66601.928517,453,836
66601.928517,453,832
66601.928517,453,832
66601.928517,453,836
66601.928517,452,832
66601.928517,452,832
66601.928517,452,836
66601.928517,452,832
66601.928517,451,832
66601.928517,451,836
66601.928517,451,832
66601.928517,451,832
66601.928517,451,836
66601.928517,451,832
66601.928517,450,832
66601.944927,449,836
66601.944927,449,832
66601.944927,449,832
66601.944927,449,836
66601.944927,449,832
66601.944927,449,832
66601.944927,448,836
66601.944927,448,832
66601.944927,448,832
66601.944927,448,836
66601.944927,447,832
66601.944927,447,836
66601.944927,447,832
66601.944927,447,832
66601.944927,446,836
66601.944927,446,832
66601.957555,447,832
66601.957555,446,836
66601.957555,446,832
66601.957555,446,832
66601.957555,446,836
66601.957555,446,832
66601.957555,447,832
66601.957555,447,836
66601.957555,447,832
66601.957555,447,832
66601.957555,446,836
66601.957555,447,832
66601.957555,446,832
66601.957555,446,836
66601.957555,446,832
66601.957555,446,832
66601.969513,446,836
66601.969513,446,832
66601.969513,446,832
66601.969513,446,836
66601.969513,446,832
66601.969513,446,832
66601.969513,446,836
66601.969513,445,832
66601.969513,445,832
66601.969513,445,836
66601.969513,445,832
66601.969513,445,836
66601.969513,446,832
66601.969513,446,832
66601.969513,446,836
66601.969513,447,832
66601.981774,448,832
66601.981774,448,836
66601.981774,448,832
66601.981774,448,832
66601.981774,448,836
66601.981774,448,832
66601.981774,447,832
66601.981774,447,836
66601.981774,446,832
66601.981774,446,832
66601.981774,446,836
66601.981774,446,832
66601.981774,446,832
66601.981774,446,836
66601.981774,446,832
66601.981774,446,832
66601.998029,447,836
66601.998029,446,832
66601.998029,447,832
66601.998029,446,836
66601.998029,446,832
66601.998029,446,832
66601.998029,446,836
66601.998029,446,832
66601.998029,447,832
66601.998029,447,836
66601.998029,447,832
66601.998029,448,836
66601.998029,448,832
66601.998029,448,832
66601.998029,448,836
66601.998029,448,832
66602.010982,448,832
66602.010982,449,836
66602.010982,449,832
66602.010982,449,832
66602.010982,450,836
66602.010982,449,832
66602.010982,450,832
66602.010982,449,836
66602.010982,449,832
66602.010982,450,832
66602.010982,449,836
66602.010982,449,832
66602.010982,449,832
66602.010982,449,836
66602.010982,448,832
66602.010982,448,832
66602.02189599999,449,836
66602.02189599999,449,832
66602.02189599999,449,832
66602.02189599999,449,836
66602.02189599999,449,832
66602.02189599999,449,832
66602.02189599999,449,836
66602.02189599999,449,832
66602.02189599999,449,832
66602.02189599999,450,836
66602.02189599999,449,832
66602.02189599999,449,836
66602.02189599999,449,832
66602.02189599999,449,832
66602.02189599999,449,836
66602.02189599999,449,832
66602.034601,449,832
66602.034601,448,836
66602.034601,448,832
66602.034601,448,832
66602.034601,448,836
66602.034601,448,832
66602.034601,448,832
66602.034601,448,836
66602.034601,449,832
66602.034601,450,832
66602.034601,450,836
66602.034601,451,832
66602.034601,454,832
66602.034601,454,836
66602.034601,454,832
66602.034601,453,832
66602.047467,454,836
66602.047467,454,832
66602.047467,454,832
66602.047467,454,836
66602.047467,454,832
66602.047467,454,832
66602.047467,454,836
66602.047467,453,832
66602.047467,453,832
66602.047467,452,836
66602.047467,453,832
66602.047467,452,836
66602.047467,452,832
66602.047467,452,832
66602.047467,452,836
66602.047467,452,832
66602.063337,452,832
66602.063337,453,836
66602.063337,452,832
66602.063337,452,832
66602.063337,453,836
66602.063337,452,832
66602.063337,453,832
66602.063337,454,836
66602.063337,454,832
66602.063337,454,832
66602.063337,454,836
66602.063337,453,832
66602.063337,453,832
66602.063337,453,836
66602.063337,454,832
66602.063337,454,832
66602.076024,455,836
66602.076024,455,832
66602.076024,456,832
66602.076024,456,836
66602.076024,456,832
66602.076024,456,832
66602.076024,456,836
66602.076024,456,832
66602.076024,456,836
66602.076024,456,832
66602.076024,456,832
66602.076024,457,836
66602.076024,457,832
66602.076024,457,832
66602.076024,457,836
66602.076024,458,832
66602.08854699999,458,832
66602.08854699999,458,836
66602.08854699999,458,832
66602.08854699999,458,832
66602.08854699999,459,836
66602.08854699999,459,832
66602.08854699999,460,832
66602.08854699999,461,848
66602.08854699999,462,820
66602.08854699999,464,832
66602.08854699999,464,836
66602.08854699999,465,832
66602.08854699999,465,832
66602.08854699999,464,836
66602.08854699999,463,832
66602.08854699999,462,832
66602.099916,461,836
66602.099916,459,832
66602.099916,458,832
66602.099916,457,836
66602.099916,457,832
66602.099916,456,832
66602.099916,456,836
66602.099916,456,832
66602.099916,457,832
66602.099916,457,836
66602.099916,457,832
66602.099916,457,836
66602.099916,457,832
66602.099916,457,832
66602.099916,456,836
66602.099916,455,832
66602.116423,454,832
66602.116423,453,836
66602.116423,452,832
66602.116423,451,832
66602.116423,450,836
66602.116423,449,832
66602.116423,450,832
66602.116423,450,836
66602.116423,450,832
66602.116423,450,832
66602.116423,452,836
66602.116423,452,832
66602.116423,453,832
66602.116423,453,836
66602.116423,454,832
66602.116423,455,832
66602.12915200001,456,836
66602.12915200001,456,832
66602.12915200001,456,832
66602.12915200001,456,836
66602.12915200001,456,832
66602.12915200001,456,832
66602.12915200001,456,836
66602.12915200001,457,832
66602.12915200001,457,836
66602.12915200001,458,832
66602.12915200001,458,832
66602.12915200001,458,836
66602.12915200001,459,832
66602.12915200001,459,832
66602.12915200001,459,836
66602.12915200001,460,832
66602.141753,460,832
66602.141753,460,836
66602.141753,460,832
66602.141753,461,832
66602.141753,461,836
66602.141753,462,832
66602.141753,462,832
66602.141753,462,836
66602.141753,462,832
66602.141753,462,832
66602.141753,461,836
66602.141753,462,832
66602.141753,461,832
66602.141753,463,836
66602.141753,468,832
66602.141753,472,832
66602.153141,471,836
66602.153141,469,832
66602.153141,469,832
66602.153141,468,836
66602.153141,468,832
66602.153141,471,832
66602.153141,478,836
66602.153141,477,832
66602.153141,475,836
66602.153141,474,832
66602.153141,472,832
66602.153141,472,836
66602.153141,471,832
66602.153141,471,832
66602.153141,471,836
66602.153141,470,832
66602.170408,470,832
66602.170408,470,836
66602.170408,470,832
66602.170408,470,832
66602.170408,469,836
66602.170408,469,832
66602.170408,468,832
66602.170408,468,836
66602.170408,467,832
66602.170408,466,832
66602.170408,466,836
66602.170408,466,832
66602.170408,466,832
66602.170408,466,836
66602.170408,465,832
66602.170408,464,832
66602.183182,464,836
66602.183182,464,832
66602.183182,464,832
66602.183182,464,836
66602.183182,465,832
66602.183182,465,832
66602.183182,465,836
66602.183182,465,832
66602.183182,465,832
66602.183182,465,836
66602.183182,465,832
66602.183182,464,836
66602.183182,464,832
66602.183182,464,832
66602.183182,464,836
66602.183182,464,832
66602.195245,464,832
66602.195245,464,836
66602.195245,464,832
66602.195245,465,832
66602.195245,465,836
66602.195245,465,832
66602.195245,465,832
66602.195245,465,836
66602.195245,466,832
66602.195245,466,832
66602.195245,467,836
66602.195245,467,832
66602.195245,467,832
66602.195245,467,836
66602.195245,466,832
66602.195245,467,832
66602.206733,467,836
66602.206733,468,832
66602.206733,468,832
66602.206733,467,836
66602.206733,468,832
66602.206733,468,832
66602.206733,469,836
66602.206733,470,832
66602.206733,470,832
66602.206733,470,836
66602.206733,470,832
66602.206733,470,836
66602.206733,470,832
66602.206733,471,832
66602.206733,471,836
66602.206733,472,832
66602.22295,472,832
66602.22295,472,836
66602.22295,472,832
66602.22295,472,832
66602.22295,472,836
66602.22295,472,832
66602.22295,472,832
66602.22295,473,836
66602.22295,472,832
66602.22295,473,832
66602.22295,473,836
66602.22295,473,832
66602.22295,473,832
66602.22295,473,836
66602.22295,473,832
66602.22295,474,832
66602.235356,474,836
66602.235356,474,832
66602.235356,475,832
66602.235356,476,836
66602.235356,476,832
66602.235356,476,832
66602.235356,476,836
66602.235356,475,832
66602.235356,474,832
66602.235356,475,836
66602.235356,475,832
66602.235356,475,836
66602.235356,475,832
66602.235356,475,832
66602.235356,475,836
66602.235356,475,832
66602.248203,475,832
66602.248203,475,836
66602.248203,475,832
66602.248203,475,836
66602.248203,475,832
66602.248203,475,832
66602.248203,475,832
66602.248203,475,836
66602.248203,476,832
66602.248203,475,832
66602.248203,476,836
66602.248203,476,832
66602.248203,476,832
66602.248203,476,836
66602.248203,475,832
66602.248203,476,832
66602.264736,476,836
66602.264736,476,832
66602.264736,476,832
66602.264736,476,836
66602.264736,477,832
66602.264736,477,832
66602.264736,477,836
66602.264736,477,832
66602.264736,477,832
66602.264736,477,836
66602.264736,477,832
66602.264736,477,836
66602.264736,477,832
66602.264736,477,832
66602.264736,478,836
66602.264736,477,832
66602.276214,477,832
66602.276214,477,836
66602.276214,476,832
66602.276214,476,832
66602.276214,476,836
66602.276214,476,832
66602.276214,476,832
66602.276214,476,836
66602.276214,476,832
66602.276214,477,832
66602.276214,477,836
66602.276214,477,832
66602.276214,478,832
66602.276214,478,836
66602.276214,478,832
66602.276214,478,832
66602.288903,478,836
66602.288903,478,832
66602.288903,478,832
66602.288903,479,836
66602.288903,479,832
66602.288903,478,832
66602.288903,478,836
66602.288903,478,832
66602.288903,478,836
66602.288903,479,832
66602.288903,479,832
66602.288903,478,836
66602.288903,478,832
66602.288903,479,832
66602.288903,478,836
66602.288903,478,832
66602.301596,478,832
66602.301596,478,836
66602.301596,478,832
66602.301596,478,832
66602.301596,477,836
66602.301596,477,832
66602.301596,478,832
66602.301596,478,836
66602.301596,479,832
66602.301596,480,832
66602.301596,480,836
66602.301596,480,832
66602.301596,480,832
66602.301596,481,836
66602.301596,481,832
66602.301596,481,832
66602.318203,481,836
66602.318203,481,832
66602.318203,481,832
66602.318203,482,836
66602.318203,482,832
66602.318203,482,832
66602.318203,483,836
66602.318203,483,832
66602.318203,483,832
66602.318203,483,836
66602.318203,483,832
66602.318203,483,836
66602.318203,483,832
66602.318203,483,832
66602.318203,483,836
66602.318203,484,832
66602.329764,484,832
66602.329764,484,836
66602.329764,484,832
66602.329764,485,832
66602.329764,484,836
66602.329764,484,832
66602.329764,484,832
66602.329764,485,836
66602.329764,485,832
66602.329764,485,832
66602.329764,486,836
66602.329764,486,832
66602.329764,486,832
66602.329764,486,836
66602.329764,486,832
66602.329764,486,832
66602.342478,487,836
66602.342478,487,832
66602.342478,487,832
66602.342478,487,836
66602.342478,487,832
66602.342478,487,832
66602.342478,488,836
66602.342478,488,832
66602.342478,489,832
66602.342478,489,836
66602.342478,490,832
66602.342478,490,836
66602.342478,490,832
66602.342478,491,832
66602.342478,492,836
66602.342478,492,832
66602.358907,492,832
66602.358907,492,836
66602.358907,491,832
66602.358907,491,832
66602.358907,491,836
66602.358907,491,832
66602.358907,491,832
66602.358907,491,836
66602.358907,491,832
66602.358907,490,832
66602.358907,490,836
66602.358907,489,832
66602.358907,489,832
66602.358907,489,836
66602.358907,488,832
66602.358907,488,832
66602.370203,488,836
66602.370203,488,832
66602.370203,488,832
66602.370203,488,836
66602.370203,488,832
66602.370203,488,832
66602.370203,488,836
66602.370203,489,832
66602.370203,488,836
66602.370203,488,832
66602.370203,488,832
66602.370203,489,836
66602.370203,489,832
66602.370203,490,832
66602.370203,490,836
66602.370203,490,832
66602.382878,490,832
66602.382878,491,836
66602.382878,491,832
66602.382878,492,832
66602.382878,491,836
66602.382878,491,832
66602.382878,491,832
66602.382878,491,836
66602.382878,491,832
66602.382878,491,832
66602.382878,491,836
66602.382878,491,832
66602.382878,491,832
66602.382878,490,836
66602.382878,490,832
66602.382878,491,832
66602.395586,491,836
66602.395586,491,832
66602.395586,490,832
66602.395586,490,836
66602.395586,490,832
66602.395586,490,832
66602.395586,490,836
66602.395586,490,832
66602.395586,489,836
66602.395586,489,832
66602.395586,489,832
66602.395586,488,836
66602.395586,488,832
66602.395586,489,832
66602.395586,489,836
66602.395586,489,832
66602.411945,488,832
66602.411945,489,836
66602.411945,489,832
66602.411945,489,832
66602.411945,489,836
66602.411945,489,832
66602.411945,489,832
66602.411945,490,836
66602.411945,490,832
66602.411945,490,832
66602.411945,490,836
66602.411945,490,832
66602.411945,490,832
66602.411945,489,836
66602.411945,489,832
66602.411945,489,832
66602.423306,490,836
66602.423306,489,832
66602.423306,490,832
66602.423306,490,836
66602.423306,489,832
66602.423306,488,832
66602.423306,488,836
66602.423306,488,832
66602.423306,488,832
66602.423306,487,836
66602.423306,488,832
66602.423306,488,836
66602.423306,489,832
66602.423306,488,832
66602.423306,489,836
66602.423306,488,832
66602.436002,488,832
66602.436002,487,836
66602.436002,487,832
66602.436002,486,832
66602.436002,486,836
66602.436002,487,832
66602.436002,488,832
66602.436002,488,836
66602.436002,488,832
66602.436002,488,832
66602.436002,488,848
66602.436002,488,820
66602.436002,488,832
66602.436002,488,836
66602.436002,489,832
66602.436002,488,832
66602.44864,489,836
66602.44864,488,832
66602.44864,488,832
66602.44864,488,836
66602.44864,488,832
66602.44864,487,832
66602.44864,487,836
66602.44864,488,832
66602.44864,488,836
66602.44864,488,832
66602.44864,488,832
66602.44864,489,836
66602.44864,489,832
66602.44864,490,832
66602.44864,490,836
66602.44864,491,832
66602.46511599999,491,832
66602.46511599999,491,836
66602.46511599999,491,832
66602.46511599999,491,832
66602.46511599999,491,836
66602.46511599999,491,832
66602.46511599999,490,832
66602.46511599999,490,836
66602.46511599999,491,832
66602.46511599999,491,832
66602.46511599999,491,836
66602.46511599999,491,832
66602.46511599999,491,832
66602.46511599999,491,836
66602.46511599999,491,832
66602.46511599999,491,832
66602.476553,491,836
66602.476553,492,832
66602.476553,492,832
66602.476553,493,836
66602.476553,494,832
66602.476553,494,832
66602.476553,494,836
66602.476553,495,832
66602.476553,495,836
66602.476553,494,832
66602.476553,495,832
66602.476553,495,836
66602.476553,495,832
66602.476553,496,832
66602.476553,496,836
66602.476553,495,832
66602.489307,495,832
66602.489307,495,836
66602.489307,495,832
66602.489307,495,832
66602.489307,495,836
66602.489307,495,832
66602.489307,495,832
66602.489307,495,836
66602.489307,495,832
66602.489307,495,832
66602.489307,495,836
66602.489307,494,832
66602.489307,495,832
66602.489307,495,836
66602.489307,495,832
66602.489307,495,832
66602.502122,495,836
66602.502122,496,832
66602.502122,495,832
66602.502122,496,836
66602.502122,497,832
66602.502122,498,832
66602.502122,498,836
66602.502122,499,832
66602.502122,500,832
66602.502122,501,836
66602.502122,501,832
66602.502122,502,836
66602.502122,502,832
66602.502122,502,832
66602.502122,502,836
66602.502122,502,832
66602.51841799999,503,832
66602.51841799999,503,836
66602.51841799999,504,832
66602.51841799999,504,832
66602.51841799999,505,836
66602.51841799999,505,832
66602.51841799999,505,832
66602.51841799999,504,836
66602.51841799999,503,832
66602.51841799999,503,832
66602.51841799999,502,836
66602.51841799999,502,832
66602.51841799999,501,832
66602.51841799999,500,836
66602.51841799999,500,832
66602.51841799999,500,832
66602.530222,499,836
66602.530222,500,832
66602.530222,500,832
66602.530222,499,836
66602.530222,499,832
66602.530222,498,832
66602.530222,498,836
66602.530222,498,832
66602.530222,498,832
66602.530222,498,836
66602.530222,498,832
66602.530222,497,836
66602.530222,497,832
66602.530222,497,832
66602.530222,496,836
66602.530222,496,832
66602.542588,496,832
66602.542588,495,836
66602.542588,495,832
66602.542588,495,832
66602.542588,495,836
66602.542588,496,832
66602.542588,496,832
66602.542588,496,836
66602.542588,496,832
66602.542588,496,832
66602.542588,496,836
66602.542588,496,832
66602.542588,496,832
66602.542588,496,836
66602.542588,497,832
66602.542588,496,832
66602.555008,496,836
66602.555008,496,832
66602.555008,497,832
66602.555008,497,836
66602.555008,498,832
66602.555008,498,832
66602.555008,498,836
66602.555008,498,832
66602.555008,498,836
66602.555008,498,832
66602.555008,499,832
66602.555008,499,836
66602.555008,498,832
66602.555008,498,832
66602.555008,498,836
66602.555008,498,832
66602.571511,498,832
66602.571511,498,836
66602.571511,498,832
66602.571511,499,832
66602.571511,498,836
66602.571511,499,832
66602.571511,500,832
66602.571511,501,836
66602.571511,501,832
66602.571511,502,832
66602.571511,502,836
66602.571511,502,832
66602.571511,502,832
66602.571511,503,836
66602.571511,503,832
66602.571511,503,832
66602.582928,503,836
66602.582928,504,832
66602.582928,504,832
66602.582928,504,836
66602.582928,504,832
66602.582928,504,832
66602.582928,504,836
66602.582928,504,832
66602.582928,504,836
66602.582928,504,832
66602.582928,504,832
66602.582928,504,836
66602.582928,504,832
66602.582928,504,832
66602.582928,504,836
66602.582928,504,832
66602.595585,504,832
66602.595585,504,836
66602.595585,504,832
66602.595585,504,832
66602.595585,505,836
66602.595585,505,832
66602.595585,505,836
66602.595585,505,832
66602.595585,505,832
66602.595585,505,832
66602.595585,506,836
66602.595585,505,832
66602.595585,505,832
66602.595585,505,836
66602.595585,505,832
66602.595585,505,832
66602.608076,505,836
66602.608076,505,832
66602.608076,505,832
66602.608076,506,836
66602.608076,506,832
66602.608076,506,832
66602.608076,506,836
66602.608076,506,832
66602.608076,507,836
66602.608076,508,832
66602.608076,508,832
66602.608076,508,836
66602.608076,507,832
66602.608076,507,832
66602.608076,507,836
66602.608076,506,832
66602.620498,505,832
66602.620498,506,836
66602.620498,505,832
66602.620498,505,832
66602.620498,504,836
66602.620498,505,832
66602.620498,505,832
66602.620498,505,836
66602.620498,505,832
66602.620498,506,832
66602.620498,506,836
66602.620498,506,832
66602.620498,506,832
66602.620498,505,836
66602.620498,504,832
66602.620498,504,832
66602.636935,505,836
66602.636935,505,832
66602.636935,505,832
66602.636935,505,836
66602.636935,505,832
66602.636935,505,832
66602.636935,506,836
66602.636935,506,832
66602.636935,507,836
66602.636935,507,832
66602.636935,508,832
66602.636935,508,836
66602.636935,508,832
66602.636935,509,832
66602.636935,509,836
66602.636935,509,832
66602.649711,509,832
66602.649711,509,836
66602.649711,509,832
66602.649711,509,832
66602.649711,509,836
66602.649711,509,832
66602.649711,509,832
66602.649711,509,836
66602.649711,509,832
66602.649711,509,832
66602.649711,508,836
66602.649711,509,832
66602.649711,509,832
66602.649711,509,836
66602.649711,510,832
66602.649711,510,832
66602.661312,510,836
66602.661312,510,832
66602.661312,509,832
66602.661312,509,836
66602.661312,509,832
66602.661312,509,832
66602.661312,509,836
66602.661312,509,832
66602.661312,509,832
66602.661312,509,836
66602.661312,509,832
66602.661312,509,836
66602.661312,509,832
66602.661312,509,832
66602.661312,510,836
66602.661312,509,832
66602.67404900001,509,832
66602.67404900001,510,836
66602.67404900001,510,832
66602.67404900001,510,832
66602.67404900001,510,836
66602.67404900001,511,832
66602.67404900001,511,832
66602.67404900001,511,836
66602.67404900001,511,832
66602.67404900001,511,832
66602.67404900001,511,836
66602.67404900001,519,832
66602.67404900001,522,832
66602.67404900001,521,836
66602.67404900001,521,832
66602.67404900001,521,832
66602.690566,521,836
66602.690566,521,832
66602.690566,521,832
66602.690566,521,836
66602.690566,520,832
66602.690566,521,832
66602.690566,520,836
66602.690566,520,832
66602.690566,520,832
66602.690566,520,836
66602.690566,520,832
66602.690566,520,836
66602.690566,519,832
66602.690566,519,832
66602.690566,518,836
66602.690566,518,832
66602.702027,518,832
66602.702027,519,836
66602.702027,519,832
66602.702027,519,832
66602.702027,520,836
66602.702027,519,832
66602.702027,519,832
66602.702027,519,836
66602.702027,519,832
66602.702027,519,832
66602.702027,519,836
66602.702027,520,832
66602.702027,520,832
66602.702027,521,836
66602.702027,521,832
66602.702027,522,832
66602.714914,522,836
66602.714914,523,832
66602.714914,524,832
66602.714914,523,836
66602.714914,524,832
66602.714914,524,832
66602.714914,524,836
66602.714914,526,832
66602.714914,526,836
66602.714914,526,832
66602.714914,526,832
66602.714914,526,836
66602.714914,526,832
66602.714914,527,832
66602.714914,527,836
66602.714914,527,832
66602.73154,527,832
66602.73154,527,836
66602.73154,527,832
66602.73154,526,832
66602.73154,526,836
66602.73154,526,832
66602.73154,526,832
66602.73154,526,836
66602.73154,525,832
66602.73154,525,832
66602.73154,526,836
66602.73154,526,832
66602.73154,527,832
66602.73154,527,836
66602.73154,527,832
66602.73154,526,832
66602.742919,526,836
66602.742919,526,832
66602.742919,525,832
66602.742919,525,836
66602.742919,526,832
66602.742919,526,832
66602.742919,526,836
66602.742919,525,832
66602.742919,525,832
66602.742919,524,836
66602.742919,525,832
66602.742919,525,836
66602.742919,524,832
66602.742919,523,832
66602.742919,523,836
66602.742919,523,832
66602.755707,523,832
66602.755707,523,836
66602.755707,524,832
66602.755707,524,832
66602.755707,524,836
66602.755707,524,832
66602.755707,525,832
66602.755707,524,836
66602.755707,525,832
66602.755707,525,832
66602.755707,526,836
66602.755707,526,832
66602.755707,525,832
66602.755707,525,836
66602.755707,525,832
66602.755707,524,832
66602.768318,524,836
66602.768318,524,832
66602.768318,524,832
66602.768318,524,836
66602.768318,524,832
66602.768318,524,832
66602.768318,524,836
66602.768318,524,832
66602.768318,524,836
66602.768318,524,832
66602.768318,524,832
66602.768318,524,836
66602.768318,524,832
66602.768318,524,832
66602.768318,525,836
66602.768318,525,832
