Matlab Timestamp,Data 1,Data 2
63511.59,464.00,736.00
63511.59,464.00,836.00
63511.59,464.00,832.00
63511.59,466.00,832.00
63511.59,469.00,836.00
63511.59,469.00,832.00
63511.59,469.00,836.00
63511.59,470.00,832.00
63511.59,470.00,832.00
63511.59,470.00,836.00
63511.59,470.00,832.00
63511.59,471.00,832.00
63511.59,472.00,836.00
63511.59,471.00,832.00
63511.61,469.00,832.00
63511.61,466.00,836.00
63511.61,463.00,832.00
63511.61,462.00,832.00
63511.61,462.00,836.00
63511.61,464.00,832.00
63511.61,467.00,832.00
63511.61,470.00,836.00
63511.61,472.00,832.00
63511.61,473.00,832.00
63511.61,472.00,836.00
63511.61,471.00,832.00
63511.61,470.00,832.00
63511.61,468.00,836.00
63511.61,470.00,832.00
63511.61,471.00,832.00
63511.62,470.00,836.00
63511.62,469.00,832.00
63511.62,471.00,832.00
63511.62,473.00,836.00
63511.62,474.00,832.00
63511.62,476.00,832.00
63511.62,479.00,836.00
63511.62,480.00,832.00
63511.62,477.00,836.00
63511.62,474.00,832.00
63511.62,473.00,832.00
63511.62,471.00,836.00
63511.62,470.00,832.00
63511.62,470.00,832.00
63511.62,474.00,836.00
63511.62,478.00,832.00
63511.63,481.00,832.00
63511.63,483.00,836.00
63511.63,485.00,832.00
63511.63,485.00,832.00
63511.63,482.00,836.00
63511.63,479.00,832.00
63511.63,478.00,832.00
63511.63,478.00,836.00
63511.63,478.00,832.00
63511.63,476.00,832.00
63511.63,476.00,836.00
63511.63,475.00,832.00
63511.63,478.00,832.00
63511.63,478.00,836.00
63511.63,482.00,832.00
63511.63,485.00,832.00
63511.64,486.00,836.00
63511.64,484.00,832.00
63511.64,481.00,832.00
63511.64,479.00,836.00
63511.64,476.00,832.00
63511.64,474.00,832.00
63511.64,476.00,836.00
63511.64,479.00,832.00
63511.64,482.00,836.00
63511.64,484.00,832.00
63511.64,484.00,832.00
63511.64,484.00,836.00
63511.64,483.00,832.00
63511.64,480.00,832.00
63511.64,477.00,836.00
63511.64,475.00,832.00
63511.65,474.00,832.00
63511.65,472.00,836.00
63511.65,471.00,832.00
63511.65,472.00,832.00
63511.65,473.00,836.00
63511.65,476.00,832.00
63511.65,478.00,832.00
63511.65,480.00,836.00
63511.65,484.00,832.00
63511.65,486.00,832.00
63511.65,487.00,836.00
63511.65,485.00,832.00
63511.65,483.00,832.00
63511.65,480.00,836.00
63511.65,478.00,832.00
63511.65,477.00,832.00
63511.66,478.00,836.00
63511.66,480.00,832.00
63511.66,480.00,832.00
63511.66,480.00,836.00
63511.66,480.00,832.00
63511.66,483.00,832.00
63511.66,483.00,836.00
63511.66,486.00,832.00
63511.66,488.00,836.00
63511.66,489.00,832.00
63511.66,488.00,832.00
63511.66,485.00,836.00
63511.66,482.00,832.00
63511.66,480.00,832.00
63511.66,478.00,836.00
63511.66,477.00,832.00
63511.68,477.00,832.00
63511.68,479.00,836.00
63511.68,479.00,832.00
63511.68,479.00,832.00
63511.68,479.00,836.00
63511.68,480.00,832.00
63511.68,481.00,832.00
63511.68,479.00,836.00
63511.68,480.00,832.00
63511.68,480.00,832.00
63511.68,478.00,836.00
63511.68,476.00,832.00
63511.68,476.00,832.00
63511.68,478.00,836.00
63511.68,480.00,832.00
63511.68,479.00,832.00
63511.69,478.00,836.00
63511.69,480.00,832.00
63511.69,482.00,832.00
63511.69,483.00,836.00
63511.69,481.00,832.00
63511.69,479.00,832.00
63511.69,480.00,836.00
63511.69,479.00,832.00
63511.69,479.00,836.00
63511.69,480.00,832.00
63511.69,481.00,832.00
63511.69,480.00,836.00
63511.69,480.00,832.00
63511.69,478.00,832.00
63511.69,480.00,836.00
63511.69,478.00,832.00
63511.71,479.00,832.00
63511.71,482.00,836.00
63511.71,485.00,832.00
63511.71,485.00,832.00
63511.71,485.00,836.00
63511.71,484.00,832.00
63511.71,483.00,832.00
63511.71,483.00,836.00
63511.71,482.00,832.00
63511.71,485.00,832.00
63511.71,486.00,836.00
63511.71,486.00,832.00
63511.71,485.00,832.00
63511.71,484.00,836.00
63511.71,482.00,832.00
63511.71,484.00,832.00
63511.72,483.00,836.00
63511.72,482.00,832.00
63511.72,484.00,832.00
63511.72,483.00,836.00
63511.72,483.00,832.00
63511.72,484.00,832.00
63511.72,483.00,836.00
63511.72,485.00,832.00
63511.72,488.00,832.00
63511.72,490.00,836.00
63511.72,494.00,832.00
63511.72,496.00,836.00
63511.72,496.00,832.00
63511.72,494.00,832.00
63511.72,493.00,836.00
63511.72,491.00,832.00
63511.73,489.00,832.00
63511.73,487.00,836.00
63511.73,487.00,832.00
63511.73,489.00,832.00
63511.73,490.00,836.00
63511.73,490.00,832.00
63511.73,490.00,832.00
63511.73,489.00,836.00
63511.73,490.00,832.00
63511.73,491.00,832.00
63511.73,493.00,836.00
63511.73,494.00,832.00
63511.73,493.00,832.00
63511.73,491.00,836.00
63511.73,491.00,832.00
63511.73,491.00,832.00
63511.75,491.00,836.00
63511.75,493.00,832.00
63511.75,495.00,832.00
63511.75,496.00,836.00
63511.75,495.00,832.00
63511.75,492.00,832.00
63511.75,491.00,836.00
63511.75,490.00,832.00
63511.75,492.00,832.00
63511.75,494.00,836.00
63511.75,495.00,832.00
63511.75,499.00,836.00
63511.75,501.00,832.00
63511.75,501.00,832.00
63511.75,502.00,836.00
63511.75,502.00,832.00
63511.76,501.00,832.00
63511.76,499.00,836.00
63511.76,497.00,832.00
63511.76,497.00,832.00
63511.76,499.00,836.00
63511.76,499.00,832.00
63511.76,500.00,832.00
63511.76,500.00,836.00
63511.76,499.00,832.00
63511.76,499.00,832.00
63511.76,498.00,836.00
63511.76,500.00,832.00
63511.76,503.00,832.00
63511.76,503.00,836.00
63511.76,500.00,832.00
63511.76,499.00,832.00
63511.77,497.00,836.00
63511.77,495.00,832.00
63511.77,496.00,832.00
63511.77,498.00,836.00
63511.77,503.00,832.00
63511.77,505.00,832.00
63511.77,505.00,836.00
63511.77,505.00,832.00
63511.77,503.00,836.00
63511.77,503.00,832.00
63511.77,505.00,832.00
63511.77,506.00,836.00
63511.77,506.00,832.00
63511.77,506.00,832.00
63511.77,506.00,836.00
63511.77,505.00,832.00
63511.79,505.00,832.00
63511.79,506.00,836.00
63511.79,504.00,832.00
63511.79,503.00,832.00
63511.79,506.00,836.00
63511.79,508.00,832.00
63511.79,509.00,832.00
63511.79,510.00,836.00
63511.79,510.00,832.00
63511.79,510.00,832.00
63511.79,509.00,836.00
63511.79,507.00,832.00
63511.79,506.00,832.00
63511.79,506.00,836.00
63511.79,506.00,832.00
63511.79,505.00,832.00
63511.80,504.00,836.00
63511.80,504.00,832.00
63511.80,504.00,832.00
63511.80,502.00,836.00
63511.80,504.00,832.00
63511.80,505.00,832.00
63511.80,507.00,836.00
63511.80,506.00,832.00
63511.80,504.00,836.00
63511.80,502.00,832.00
63511.80,501.00,832.00
63511.80,503.00,836.00
63511.80,507.00,832.00
63511.80,511.00,832.00
63511.80,512.00,836.00
63511.80,512.00,832.00
63511.81,511.00,832.00
63511.81,510.00,836.00
63511.81,510.00,832.00
63511.81,509.00,832.00
63511.81,505.00,836.00
63511.81,504.00,832.00
63511.81,503.00,832.00
63511.81,502.00,836.00
63511.81,503.00,832.00
63511.81,505.00,832.00
63511.81,509.00,836.00
63511.81,512.00,832.00
63511.81,513.00,832.00
63511.81,515.00,836.00
63511.81,515.00,832.00
63511.81,514.00,832.00
63511.82,512.00,836.00
63511.82,511.00,832.00
63511.82,511.00,832.00
63511.82,510.00,836.00
63511.82,509.00,832.00
63511.82,509.00,832.00
63511.82,510.00,836.00
63511.82,509.00,832.00
63511.82,509.00,836.00
63511.82,510.00,832.00
63511.82,507.00,832.00
63511.82,504.00,836.00
63511.82,501.00,832.00
63511.82,502.00,832.00
63511.82,505.00,836.00
63511.82,508.00,832.00
63511.84,508.00,832.00
63511.84,508.00,836.00
63511.84,507.00,832.00
63511.84,507.00,832.00
63511.84,507.00,836.00
63511.84,505.00,832.00
63511.84,507.00,832.00
63511.84,508.00,836.00
63511.84,506.00,832.00
63511.84,505.00,832.00
63511.84,504.00,836.00
63511.84,505.00,832.00
63511.84,505.00,832.00
63511.84,505.00,836.00
63511.84,505.00,832.00
63511.84,505.00,832.00
63511.85,503.00,836.00
63511.85,504.00,832.00
63511.85,507.00,832.00
63511.85,512.00,836.00
63511.85,516.00,832.00
63511.85,516.00,832.00
63511.85,519.00,836.00
63511.85,521.00,832.00
63511.85,520.00,832.00
63511.85,519.00,836.00
63511.85,520.00,832.00
63511.85,519.00,836.00
63511.85,517.00,832.00
63511.85,516.00,832.00
63511.85,516.00,836.00
63511.85,519.00,832.00
63511.86,520.00,832.00
63511.86,520.00,836.00
63511.86,519.00,832.00
63511.86,518.00,832.00
63511.86,517.00,836.00
63511.86,515.00,832.00
63511.86,515.00,832.00
63511.86,514.00,836.00
63511.86,516.00,832.00
63511.86,517.00,832.00
63511.86,517.00,836.00
63511.86,516.00,832.00
63511.86,516.00,832.00
63511.86,518.00,836.00
63511.86,519.00,832.00
63511.86,521.00,832.00
63511.88,523.00,836.00
63511.88,522.00,832.00
63511.88,519.00,832.00
63511.88,516.00,836.00
63511.88,515.00,832.00
63511.88,513.00,832.00
63511.88,513.00,836.00
63511.88,513.00,832.00
63511.88,513.00,832.00
63511.88,512.00,836.00
63511.88,511.00,832.00
63511.88,512.00,836.00
63511.88,512.00,832.00
63511.88,512.00,832.00
63511.88,512.00,836.00
63511.88,514.00,832.00
63511.89,517.00,832.00
63511.89,520.00,836.00
63511.89,520.00,832.00
63511.89,522.00,832.00
63511.89,524.00,836.00
63511.89,523.00,832.00
63511.89,520.00,832.00
63511.89,516.00,836.00
63511.89,512.00,832.00
63511.89,512.00,832.00
63511.89,512.00,836.00
63511.89,513.00,832.00
63511.89,514.00,832.00
63511.89,515.00,836.00
63511.89,516.00,844.00
63511.89,518.00,820.00
63511.91,520.00,836.00
63511.91,523.00,832.00
63511.91,523.00,832.00
63511.91,520.00,836.00
63511.91,518.00,832.00
63511.91,516.00,832.00
63511.91,516.00,836.00
63511.91,515.00,832.00
63511.91,516.00,832.00
63511.91,518.00,836.00
63511.91,519.00,832.00
63511.91,518.00,836.00
63511.91,517.00,832.00
63511.91,515.00,832.00
63511.91,513.00,836.00
63511.91,513.00,832.00
63511.92,514.00,832.00
63511.92,516.00,836.00
63511.92,516.00,832.00
63511.92,515.00,832.00
63511.92,515.00,836.00
63511.92,517.00,832.00
63511.92,517.00,832.00
63511.92,516.00,836.00
63511.92,514.00,832.00
63511.92,514.00,832.00
63511.92,513.00,836.00
63511.92,514.00,832.00
63511.92,515.00,832.00
63511.92,516.00,836.00
63511.92,517.00,832.00
63511.92,515.00,832.00
63511.93,513.00,836.00
63511.93,513.00,832.00
63511.93,515.00,832.00
63511.93,515.00,836.00
63511.93,516.00,832.00
63511.93,515.00,832.00
63511.93,515.00,836.00
63511.93,515.00,832.00
63511.93,514.00,832.00
63511.93,515.00,836.00
63511.93,517.00,832.00
63511.93,517.00,836.00
63511.93,515.00,832.00
63511.93,512.00,832.00
63511.93,509.00,836.00
63511.93,506.00,832.00
63511.94,503.00,832.00
63511.94,504.00,836.00
63511.94,507.00,832.00
63511.94,508.00,832.00
63511.94,509.00,836.00
63511.94,510.00,832.00
63511.94,510.00,832.00
63511.94,510.00,836.00
63511.94,509.00,832.00
63511.94,507.00,832.00
63511.94,505.00,836.00
63511.94,503.00,832.00
63511.94,503.00,832.00
63511.94,504.00,836.00
63511.94,506.00,832.00
63511.94,508.00,832.00
63511.96,510.00,836.00
63511.96,513.00,832.00
63511.96,516.00,832.00
63511.96,517.00,836.00
63511.96,517.00,832.00
63511.96,516.00,832.00
63511.96,516.00,836.00
63511.96,514.00,832.00
63511.96,511.00,832.00
63511.96,506.00,836.00
63511.96,504.00,832.00
63511.96,505.00,836.00
63511.96,507.00,832.00
63511.96,510.00,832.00
63511.96,512.00,836.00
63511.96,515.00,832.00
63511.97,516.00,832.00
63511.97,515.00,836.00
63511.97,518.00,832.00
63511.97,521.00,832.00
63511.97,522.00,836.00
63511.97,523.00,832.00
63511.97,521.00,832.00
63511.97,517.00,836.00
63511.97,514.00,832.00
63511.97,512.00,832.00
63511.97,511.00,836.00
63511.97,512.00,832.00
63511.97,512.00,832.00
63511.97,513.00,836.00
63511.97,515.00,832.00
63511.97,515.00,832.00
63511.98,517.00,836.00
63511.98,516.00,832.00
63511.98,517.00,832.00
63511.98,518.00,836.00
63511.98,516.00,832.00
63511.98,513.00,832.00
63511.98,511.00,836.00
63511.98,509.00,832.00
63511.98,509.00,836.00
63511.98,509.00,832.00
63511.98,510.00,832.00
63511.98,512.00,836.00
63511.98,514.00,832.00
63511.98,514.00,832.00
63511.98,514.00,836.00
63511.98,514.00,832.00
63512.00,512.00,832.00
63512.00,510.00,836.00
63512.00,508.00,832.00
63512.00,507.00,832.00
63512.00,509.00,836.00
63512.00,511.00,832.00
63512.00,514.00,832.00
63512.00,517.00,836.00
63512.00,519.00,832.00
63512.00,522.00,832.00
63512.00,520.00,836.00
63512.00,519.00,832.00
63512.00,518.00,832.00
63512.00,517.00,836.00
63512.00,516.00,832.00
63512.00,516.00,832.00
63512.01,514.00,836.00
63512.01,513.00,832.00
63512.01,513.00,832.00
63512.01,514.00,836.00
63512.01,516.00,832.00
63512.01,518.00,832.00
63512.01,518.00,836.00
63512.01,518.00,832.00
63512.01,516.00,832.00
63512.01,515.00,836.00
63512.01,514.00,832.00
63512.01,513.00,836.00
63512.01,514.00,832.00
63512.01,515.00,832.00
63512.01,513.00,836.00
63512.01,513.00,832.00
63512.03,515.00,832.00
63512.03,516.00,836.00
63512.03,518.00,832.00
63512.03,519.00,832.00
63512.03,521.00,836.00
63512.03,524.00,832.00
63512.03,524.00,832.00
63512.03,522.00,836.00
63512.03,519.00,832.00
63512.03,516.00,832.00
63512.03,515.00,836.00
63512.03,512.00,832.00
63512.03,509.00,832.00
63512.03,508.00,836.00
63512.03,508.00,832.00
63512.03,511.00,832.00
63512.04,516.00,836.00
63512.04,520.00,832.00
63512.04,523.00,832.00
63512.04,525.00,836.00
63512.04,526.00,832.00
63512.04,529.00,832.00
63512.04,530.00,836.00
63512.04,528.00,832.00
63512.04,526.00,832.00
63512.04,523.00,836.00
63512.04,519.00,832.00
63512.04,516.00,836.00
63512.04,514.00,832.00
63512.04,514.00,832.00
63512.04,517.00,836.00
63512.04,519.00,832.00
63512.05,521.00,832.00
63512.05,521.00,836.00
63512.05,520.00,832.00
63512.05,519.00,832.00
63512.05,517.00,836.00
63512.05,516.00,832.00
63512.05,519.00,832.00
63512.05,519.00,836.00
63512.05,519.00,832.00
63512.05,518.00,832.00
63512.05,517.00,836.00
63512.05,518.00,832.00
63512.05,520.00,832.00
63512.05,521.00,836.00
63512.05,522.00,832.00
63512.05,522.00,832.00
63512.07,521.00,836.00
63512.07,523.00,832.00
63512.07,522.00,832.00
63512.07,522.00,836.00
63512.07,521.00,832.00
63512.07,522.00,832.00
63512.07,524.00,836.00
63512.07,525.00,832.00
63512.07,523.00,832.00
63512.07,522.00,836.00
63512.07,521.00,832.00
63512.07,519.00,836.00
63512.07,519.00,832.00
63512.07,518.00,832.00
63512.07,518.00,836.00
63512.07,520.00,832.00
63512.08,520.00,832.00
63512.08,521.00,836.00
63512.08,521.00,832.00
63512.08,518.00,832.00
63512.08,517.00,836.00
63512.08,514.00,832.00
63512.08,512.00,832.00
63512.08,514.00,836.00
63512.08,516.00,832.00
63512.08,518.00,832.00
63512.08,521.00,836.00
63512.08,522.00,832.00
63512.08,525.00,832.00
63512.08,526.00,836.00
63512.08,526.00,832.00
63512.08,527.00,832.00
63512.09,527.00,836.00
63512.09,524.00,832.00
63512.09,524.00,832.00
63512.09,522.00,836.00
63512.09,521.00,832.00
63512.09,521.00,832.00
63512.09,521.00,836.00
63512.09,521.00,832.00
63512.09,523.00,836.00
63512.09,522.00,832.00
63512.09,522.00,832.00
63512.09,520.00,836.00
63512.09,519.00,832.00
63512.09,518.00,832.00
63512.09,518.00,836.00
63512.09,518.00,832.00
63512.11,520.00,832.00
63512.11,521.00,836.00
63512.11,522.00,832.00
63512.11,522.00,832.00
63512.11,522.00,836.00
63512.11,522.00,832.00
63512.11,522.00,832.00
63512.11,521.00,836.00
63512.11,524.00,832.00
63512.11,525.00,832.00
63512.11,527.00,836.00
63512.11,528.00,832.00
63512.11,527.00,832.00
63512.11,527.00,836.00
63512.11,525.00,832.00
63512.11,524.00,832.00
63512.12,524.00,836.00
63512.12,521.00,832.00
63512.12,520.00,832.00
63512.12,519.00,836.00
63512.12,519.00,832.00
63512.12,519.00,832.00
63512.12,521.00,836.00
63512.12,521.00,832.00
63512.12,523.00,836.00
63512.12,524.00,832.00
63512.12,525.00,832.00
63512.12,525.00,836.00
63512.12,522.00,832.00
63512.12,520.00,832.00
63512.12,518.00,836.00
63512.12,517.00,832.00
63512.14,517.00,832.00
63512.14,516.00,836.00
63512.14,516.00,832.00
63512.14,517.00,832.00
63512.14,517.00,836.00
63512.14,516.00,832.00
63512.14,517.00,832.00
63512.14,518.00,836.00
63512.14,520.00,832.00
63512.14,521.00,832.00
63512.14,523.00,836.00
63512.14,524.00,832.00
63512.14,524.00,832.00
63512.14,523.00,836.00
63512.14,522.00,832.00
63512.14,522.00,832.00
63512.15,521.00,836.00
63512.15,520.00,832.00
63512.15,520.00,832.00
63512.15,520.00,836.00
63512.15,520.00,832.00
63512.15,520.00,832.00
63512.15,520.00,836.00
63512.15,521.00,832.00
63512.15,523.00,836.00
63512.15,523.00,832.00
63512.15,524.00,832.00
63512.15,525.00,836.00
63512.15,524.00,832.00
63512.15,523.00,832.00
63512.15,521.00,836.00
63512.15,520.00,832.00
63512.16,519.00,832.00
63512.16,520.00,836.00
63512.16,521.00,832.00
63512.16,524.00,832.00
63512.16,528.00,836.00
63512.16,530.00,832.00
63512.16,529.00,832.00
63512.16,527.00,836.00
63512.16,528.00,832.00
63512.16,526.00,832.00
63512.16,525.00,836.00
63512.16,527.00,832.00
63512.16,526.00,832.00
63512.16,525.00,836.00
63512.16,524.00,832.00
63512.16,523.00,832.00
63512.17,526.00,836.00
63512.17,526.00,832.00
63512.17,526.00,832.00
63512.17,527.00,836.00
63512.17,527.00,832.00
63512.17,528.00,832.00
63512.17,529.00,836.00
63512.17,527.00,832.00
63512.17,527.00,836.00
63512.17,528.00,832.00
63512.17,528.00,832.00
63512.17,529.00,836.00
63512.17,527.00,832.00
63512.17,524.00,832.00
63512.17,523.00,836.00
63512.17,522.00,832.00
63512.19,523.00,832.00
63512.19,525.00,836.00
63512.19,526.00,832.00
63512.19,529.00,832.00
63512.19,531.00,836.00
63512.19,531.00,832.00
63512.19,532.00,832.00
63512.19,530.00,836.00
63512.19,529.00,832.00
63512.19,528.00,832.00
63512.19,524.00,836.00
63512.19,523.00,832.00
63512.19,524.00,832.00
63512.19,524.00,836.00
63512.19,526.00,832.00
63512.19,525.00,832.00
63512.20,526.00,836.00
63512.20,528.00,832.00
63512.20,527.00,832.00
63512.20,526.00,836.00
63512.20,525.00,832.00
63512.20,524.00,832.00
63512.20,523.00,836.00
63512.20,521.00,832.00
63512.20,520.00,836.00
63512.20,520.00,832.00
63512.20,519.00,832.00
63512.20,521.00,836.00
63512.20,523.00,832.00
63512.20,524.00,832.00
63512.20,527.00,836.00
63512.20,527.00,832.00
63512.21,526.00,832.00
63512.21,525.00,836.00
63512.21,523.00,832.00
63512.21,523.00,832.00
63512.21,524.00,836.00
63512.21,523.00,832.00
63512.21,522.00,832.00
63512.21,521.00,836.00
63512.21,519.00,832.00
63512.21,520.00,832.00
63512.21,521.00,836.00
63512.21,523.00,832.00
63512.21,528.00,832.00
63512.21,531.00,836.00
63512.21,533.00,832.00
63512.21,533.00,832.00
63512.22,532.00,836.00
63512.22,532.00,832.00
63512.22,533.00,832.00
63512.22,530.00,836.00
63512.22,529.00,832.00
63512.22,527.00,832.00
63512.22,525.00,836.00
63512.22,525.00,832.00
63512.22,523.00,832.00
63512.22,523.00,836.00
63512.22,524.00,832.00
63512.22,525.00,836.00
63512.22,527.00,832.00
63512.22,528.00,832.00
63512.22,529.00,836.00
63512.22,530.00,832.00
63512.24,529.00,832.00
63512.24,529.00,836.00
63512.24,528.00,832.00
63512.24,528.00,832.00
63512.24,530.00,836.00
63512.24,532.00,832.00
63512.24,533.00,832.00
63512.24,535.00,836.00
63512.24,537.00,832.00
63512.24,536.00,832.00
63512.24,536.00,836.00
63512.24,533.00,832.00
63512.24,532.00,832.00
63512.24,530.00,836.00
63512.24,528.00,832.00
63512.24,529.00,832.00
63512.25,528.00,836.00
63512.25,527.00,844.00
63512.25,531.00,820.00
63512.25,531.00,836.00
63512.25,533.00,832.00
63512.25,536.00,832.00
63512.25,537.00,836.00
63512.25,535.00,832.00
63512.25,533.00,836.00
63512.25,530.00,832.00
63512.25,529.00,832.00
63512.25,528.00,836.00
63512.25,529.00,832.00
63512.25,531.00,832.00
63512.25,532.00,836.00
63512.25,533.00,832.00
63512.27,532.00,832.00
63512.27,531.00,836.00
63512.27,530.00,832.00
63512.27,529.00,832.00
63512.27,528.00,836.00
63512.27,528.00,832.00
63512.27,527.00,832.00
63512.27,528.00,836.00
63512.27,529.00,832.00
63512.27,530.00,832.00
63512.27,531.00,836.00
63512.27,532.00,832.00
63512.27,529.00,832.00
63512.27,529.00,836.00
63512.27,528.00,832.00
63512.27,529.00,832.00
63512.28,530.00,836.00
63512.28,530.00,832.00
63512.28,527.00,832.00
63512.28,527.00,836.00
63512.28,527.00,832.00
63512.28,527.00,832.00
63512.28,527.00,836.00
63512.28,527.00,832.00
63512.28,525.00,836.00
63512.28,524.00,832.00
63512.28,523.00,832.00
63512.28,522.00,836.00
63512.28,523.00,832.00
63512.28,526.00,832.00
63512.28,529.00,836.00
63512.28,531.00,832.00
63512.29,533.00,832.00
63512.29,533.00,836.00
63512.29,531.00,832.00
63512.29,531.00,832.00
63512.29,530.00,836.00
63512.29,530.00,832.00
63512.29,531.00,832.00
63512.29,529.00,836.00
63512.29,527.00,832.00
63512.29,525.00,832.00
63512.29,524.00,836.00
63512.29,524.00,832.00
63512.29,525.00,832.00
63512.29,524.00,836.00
63512.29,524.00,832.00
63512.29,527.00,832.00
63512.31,528.00,836.00
63512.31,529.00,832.00
63512.31,529.00,832.00
63512.31,529.00,836.00
63512.31,528.00,832.00
63512.31,528.00,832.00
63512.31,527.00,836.00
63512.31,527.00,832.00
63512.31,528.00,832.00
63512.31,529.00,836.00
63512.31,528.00,832.00
63512.31,529.00,836.00
63512.31,529.00,832.00
63512.31,531.00,832.00
63512.31,531.00,836.00
63512.31,533.00,832.00
63512.32,536.00,832.00
63512.32,539.00,836.00
63512.32,538.00,832.00
63512.32,535.00,832.00
63512.32,533.00,836.00
63512.32,532.00,832.00
63512.32,529.00,832.00
63512.32,528.00,836.00
63512.32,530.00,832.00
63512.32,530.00,832.00
63512.32,532.00,836.00
63512.32,532.00,832.00
63512.32,532.00,832.00
63512.32,532.00,836.00
63512.32,534.00,832.00
63512.32,532.00,832.00
63512.33,531.00,836.00
63512.33,530.00,832.00
63512.33,530.00,832.00
63512.33,529.00,836.00
63512.33,529.00,832.00
63512.33,531.00,832.00
63512.33,532.00,836.00
63512.33,536.00,832.00
63512.33,539.00,832.00
63512.33,541.00,836.00
63512.33,542.00,832.00
63512.33,543.00,836.00
63512.33,541.00,832.00
63512.33,539.00,832.00
63512.33,538.00,836.00
63512.33,538.00,832.00
63512.34,539.00,832.00
63512.34,540.00,836.00
63512.34,541.00,832.00
63512.34,541.00,832.00
63512.34,539.00,836.00
63512.34,537.00,832.00
63512.34,535.00,832.00
63512.34,532.00,836.00
63512.34,532.00,832.00
63512.34,533.00,832.00
63512.34,532.00,836.00
63512.34,532.00,832.00
63512.34,532.00,832.00
63512.34,532.00,836.00
63512.34,533.00,832.00
63512.34,532.00,832.00
63512.36,532.00,836.00
63512.36,533.00,832.00
63512.36,534.00,832.00
63512.36,532.00,836.00
63512.36,530.00,832.00
63512.36,527.00,832.00
63512.36,526.00,836.00
63512.36,524.00,832.00
63512.36,522.00,832.00
63512.36,519.00,836.00
63512.36,515.00,832.00
63512.36,512.00,836.00
63512.36,510.00,832.00
63512.36,509.00,832.00
63512.36,508.00,836.00
63512.36,512.00,832.00
63512.37,515.00,832.00
63512.37,518.00,836.00
63512.37,519.00,832.00
63512.37,522.00,832.00
63512.37,522.00,836.00
63512.37,519.00,832.00
63512.37,517.00,832.00
63512.37,517.00,836.00
63512.37,515.00,832.00
63512.37,517.00,832.00
63512.37,519.00,836.00
63512.37,520.00,832.00
63512.37,522.00,832.00
63512.37,523.00,836.00
63512.37,523.00,832.00
63512.37,525.00,832.00
63512.38,526.00,836.00
63512.38,528.00,832.00
63512.38,529.00,832.00
63512.38,530.00,836.00
63512.38,530.00,832.00
63512.38,532.00,832.00
63512.38,534.00,836.00
63512.38,537.00,832.00
63512.38,541.00,832.00
63512.38,544.00,836.00
63512.38,548.00,832.00
63512.38,550.00,836.00
63512.38,550.00,832.00
63512.38,549.00,832.00
63512.38,548.00,836.00
63512.38,548.00,832.00
63512.40,546.00,832.00
63512.40,543.00,836.00
63512.40,543.00,832.00
63512.40,544.00,832.00
63512.40,546.00,836.00
63512.40,547.00,832.00
63512.40,546.00,832.00
63512.40,547.00,836.00
63512.40,550.00,832.00
63512.40,551.00,832.00
63512.40,551.00,836.00
63512.40,554.00,832.00
63512.40,558.00,832.00
63512.40,560.00,836.00
63512.40,560.00,832.00
63512.40,561.00,832.00
63512.41,564.00,836.00
63512.41,567.00,832.00
63512.41,570.00,832.00
63512.41,574.00,836.00
63512.41,577.00,832.00
63512.41,581.00,832.00
63512.41,585.00,836.00
63512.41,586.00,832.00
63512.41,588.00,832.00
63512.41,593.00,836.00
63512.41,597.00,832.00
63512.41,601.00,836.00
63512.41,602.00,832.00
63512.41,601.00,832.00
63512.41,604.00,836.00
63512.41,605.00,832.00
63512.43,607.00,832.00
63512.43,611.00,836.00
63512.43,614.00,832.00
63512.43,617.00,832.00
63512.43,621.00,836.00
63512.43,623.00,832.00
63512.43,623.00,832.00
63512.43,623.00,836.00
63512.43,620.00,832.00
63512.43,617.00,832.00
63512.43,615.00,836.00
63512.43,615.00,832.00
63512.43,617.00,832.00
63512.43,620.00,836.00
63512.43,623.00,832.00
63512.43,626.00,832.00
63512.44,628.00,836.00
63512.44,632.00,832.00
63512.44,634.00,832.00
63512.44,633.00,836.00
63512.44,638.00,832.00
63512.44,644.00,832.00
63512.44,647.00,836.00
63512.44,649.00,832.00
63512.44,650.00,848.00
63512.44,652.00,820.00
63512.44,655.00,832.00
63512.44,656.00,836.00
63512.44,661.00,832.00
63512.44,664.00,832.00
63512.44,664.00,836.00
63512.44,666.00,832.00
63512.45,666.00,832.00
63512.45,663.00,836.00
63512.45,664.00,832.00
63512.45,666.00,832.00
63512.45,666.00,836.00
63512.45,668.00,832.00
63512.45,668.00,832.00
63512.45,670.00,836.00
63512.45,672.00,832.00
63512.45,671.00,832.00
63512.45,672.00,836.00
63512.45,673.00,832.00
63512.45,676.00,832.00
63512.45,680.00,836.00
63512.45,682.00,832.00
63512.45,683.00,832.00
63512.47,685.00,836.00
63512.47,688.00,832.00
63512.47,689.00,832.00
63512.47,689.00,836.00
63512.47,688.00,832.00
63512.47,689.00,832.00
63512.47,693.00,836.00
63512.47,695.00,832.00
63512.47,697.00,836.00
63512.47,697.00,832.00
63512.47,700.00,832.00
63512.47,705.00,836.00
63512.47,707.00,832.00
63512.47,712.00,832.00
63512.47,714.00,836.00
63512.47,714.00,832.00
63512.48,713.00,832.00
63512.48,711.00,836.00
63512.48,709.00,832.00
63512.48,707.00,832.00
63512.48,709.00,836.00
63512.48,712.00,832.00
63512.48,716.00,832.00
63512.48,720.00,836.00
63512.48,724.00,832.00
63512.48,723.00,832.00
63512.48,722.00,836.00
63512.48,722.00,832.00
63512.48,723.00,832.00
63512.48,724.00,836.00
63512.48,724.00,832.00
63512.48,724.00,832.00
63512.49,723.00,836.00
63512.49,721.00,832.00
63512.49,723.00,832.00
63512.49,725.00,836.00
63512.49,727.00,832.00
63512.49,727.00,832.00
63512.49,730.00,836.00
63512.49,732.00,832.00
63512.49,732.00,836.00
63512.49,730.00,832.00
63512.49,730.00,832.00
63512.49,729.00,836.00
63512.49,728.00,832.00
63512.49,727.00,832.00
63512.49,728.00,836.00
63512.49,729.00,832.00
63512.50,729.00,832.00
63512.50,729.00,836.00
63512.50,729.00,832.00
63512.50,731.00,832.00
63512.50,733.00,836.00
63512.50,732.00,832.00
63512.50,734.00,832.00
63512.50,734.00,836.00
63512.50,736.00,832.00
63512.50,733.00,832.00
63512.50,729.00,836.00
63512.50,724.00,832.00
63512.50,721.00,832.00
63512.50,718.00,836.00
63512.50,719.00,832.00
63512.50,722.00,832.00
63512.52,724.00,836.00
63512.52,728.00,832.00
63512.52,732.00,832.00
63512.52,735.00,836.00
63512.52,740.00,832.00
63512.52,742.00,832.00
63512.52,745.00,836.00
63512.52,748.00,832.00
63512.52,750.00,836.00
63512.52,748.00,832.00
63512.52,747.00,832.00
63512.52,749.00,836.00
63512.52,751.00,832.00
63512.52,753.00,832.00
63512.52,754.00,836.00
63512.52,756.00,832.00
63512.53,758.00,832.00
63512.53,756.00,836.00
63512.53,754.00,832.00
63512.53,752.00,832.00
63512.53,753.00,836.00
63512.53,753.00,832.00
63512.53,751.00,832.00
63512.53,752.00,836.00
63512.53,753.00,832.00
63512.53,756.00,832.00
63512.53,758.00,836.00
63512.53,759.00,832.00
63512.53,760.00,832.00
63512.53,761.00,836.00
63512.53,759.00,832.00
63512.53,758.00,832.00
63512.54,757.00,836.00
63512.54,755.00,832.00
63512.54,753.00,832.00
63512.54,749.00,836.00
63512.54,746.00,832.00
63512.54,744.00,832.00
63512.54,742.00,836.00
63512.54,742.00,832.00
63512.54,745.00,836.00
63512.54,747.00,832.00
63512.54,749.00,832.00
63512.54,748.00,836.00
63512.54,746.00,832.00
63512.54,746.00,832.00
63512.54,745.00,836.00
63512.54,744.00,832.00
63512.56,743.00,832.00
63512.56,741.00,836.00
63512.56,737.00,832.00
63512.56,735.00,832.00
63512.56,732.00,836.00
63512.56,735.00,832.00
63512.56,735.00,832.00
63512.56,733.00,836.00
63512.56,734.00,832.00
63512.56,734.00,832.00
63512.56,734.00,836.00
63512.56,733.00,832.00
63512.56,731.00,832.00
63512.56,731.00,836.00
63512.56,729.00,832.00
63512.56,727.00,832.00
63512.57,726.00,836.00
63512.57,728.00,832.00
63512.57,729.00,832.00
63512.57,729.00,836.00
63512.57,730.00,832.00
63512.57,734.00,832.00
63512.57,737.00,836.00
63512.57,738.00,832.00
63512.57,737.00,836.00
63512.57,738.00,832.00
63512.57,737.00,832.00
63512.57,734.00,836.00
63512.57,729.00,832.00
63512.57,725.00,832.00
63512.57,724.00,836.00
63512.57,724.00,832.00
63512.58,725.00,832.00
63512.58,729.00,836.00
63512.58,732.00,832.00
63512.58,734.00,832.00
63512.58,733.00,836.00
63512.58,732.00,832.00
63512.58,732.00,832.00
63512.58,732.00,836.00
63512.58,730.00,832.00
63512.58,729.00,832.00
63512.58,729.00,836.00
63512.58,732.00,832.00
63512.58,732.00,832.00
63512.58,733.00,836.00
63512.58,734.00,832.00
63512.58,735.00,832.00
63512.60,735.00,836.00
63512.60,734.00,832.00
63512.60,737.00,832.00
63512.60,736.00,836.00
63512.60,733.00,844.00
63512.60,729.00,820.00
63512.60,725.00,836.00
63512.60,724.00,832.00
63512.60,723.00,836.00
63512.60,724.00,832.00
63512.60,727.00,832.00
63512.60,730.00,836.00
63512.60,733.00,832.00
63512.60,735.00,832.00
63512.60,733.00,836.00
63512.60,732.00,832.00
63512.61,730.00,832.00
63512.61,729.00,836.00
63512.61,728.00,832.00
63512.61,726.00,832.00
63512.61,721.00,836.00
63512.61,716.00,832.00
63512.61,715.00,832.00
63512.61,716.00,836.00
63512.61,717.00,832.00
63512.61,717.00,832.00
63512.61,720.00,836.00
63512.61,724.00,832.00
63512.61,725.00,832.00
63512.61,725.00,836.00
63512.61,724.00,832.00
63512.61,721.00,832.00
63512.63,717.00,836.00
63512.63,712.00,832.00
63512.63,709.00,832.00
63512.63,708.00,836.00
63512.63,706.00,832.00
63512.63,705.00,832.00
63512.63,704.00,836.00
63512.63,706.00,832.00
63512.63,708.00,832.00
63512.63,706.00,836.00
63512.63,707.00,832.00
63512.63,708.00,836.00
63512.63,710.00,832.00
63512.63,709.00,832.00
63512.63,705.00,836.00
63512.63,702.00,832.00
63512.64,700.00,832.00
63512.64,697.00,836.00
63512.64,697.00,832.00
63512.64,699.00,832.00
63512.64,701.00,836.00
63512.64,702.00,832.00
63512.64,702.00,832.00
63512.64,702.00,836.00
63512.64,703.00,832.00
63512.64,702.00,832.00
63512.64,701.00,836.00
63512.64,699.00,832.00
63512.64,696.00,832.00
63512.64,693.00,836.00
63512.64,693.00,832.00
63512.64,692.00,832.00
63512.65,692.00,836.00
63512.65,691.00,832.00
63512.65,691.00,832.00
63512.65,695.00,836.00
63512.65,695.00,832.00
63512.65,695.00,832.00
63512.65,693.00,836.00
63512.65,692.00,832.00
63512.65,692.00,836.00
63512.65,690.00,832.00
63512.65,687.00,832.00
63512.65,686.00,836.00
63512.65,687.00,832.00
63512.65,689.00,832.00
63512.65,690.00,836.00
63512.65,690.00,832.00
63512.67,690.00,832.00
63512.67,688.00,836.00
63512.67,686.00,832.00
63512.67,686.00,832.00
63512.67,688.00,836.00
63512.67,690.00,832.00
63512.67,689.00,832.00
63512.67,686.00,836.00
63512.67,684.00,832.00
63512.67,685.00,832.00
63512.67,685.00,836.00
63512.67,684.00,832.00
63512.67,686.00,832.00
63512.67,687.00,836.00
63512.67,689.00,832.00
63512.67,689.00,832.00
63512.68,690.00,836.00
63512.68,689.00,832.00
63512.68,688.00,832.00
63512.68,685.00,836.00
63512.68,682.00,832.00
63512.68,679.00,832.00
63512.68,676.00,836.00
63512.68,673.00,832.00
63512.68,670.00,832.00
63512.68,671.00,836.00
63512.68,672.00,832.00
63512.68,672.00,836.00
63512.68,674.00,832.00
63512.68,675.00,832.00
63512.68,676.00,836.00
63512.68,677.00,832.00
63512.69,678.00,832.00
63512.69,676.00,836.00
63512.69,673.00,832.00
63512.69,670.00,832.00
63512.69,669.00,836.00
63512.69,670.00,832.00
63512.69,671.00,832.00
63512.69,672.00,836.00
63512.69,671.00,832.00
63512.69,674.00,832.00
63512.69,676.00,836.00
63512.69,676.00,832.00
63512.69,675.00,832.00
63512.69,676.00,836.00
63512.69,677.00,832.00
63512.69,676.00,832.00
63512.71,673.00,836.00
63512.71,670.00,832.00
63512.71,670.00,832.00
63512.71,669.00,836.00
63512.71,668.00,832.00
63512.71,669.00,832.00
63512.71,671.00,836.00
63512.71,672.00,832.00
63512.71,669.00,832.00
63512.71,667.00,836.00
63512.71,665.00,832.00
63512.71,666.00,836.00
63512.71,664.00,832.00
63512.71,661.00,832.00
63512.71,659.00,836.00
63512.71,659.00,832.00
63512.72,660.00,832.00
63512.72,661.00,836.00
63512.72,662.00,832.00
63512.72,661.00,832.00
63512.72,662.00,836.00
63512.72,662.00,832.00
63512.72,663.00,832.00
63512.72,666.00,836.00
63512.72,665.00,832.00
63512.72,666.00,832.00
63512.72,666.00,836.00
63512.72,665.00,832.00
63512.72,665.00,832.00
63512.72,663.00,836.00
63512.72,664.00,832.00
63512.72,665.00,832.00
63512.73,666.00,836.00
63512.73,668.00,832.00
63512.73,671.00,832.00
63512.73,671.00,836.00
63512.73,666.00,832.00
63512.73,662.00,832.00
63512.73,659.00,836.00
63512.73,658.00,832.00
63512.73,654.00,836.00
63512.73,648.00,832.00
63512.73,643.00,832.00
63512.73,638.00,836.00
63512.73,636.00,832.00
63512.73,634.00,832.00
63512.73,633.00,836.00
63512.73,632.00,832.00
63512.75,632.00,832.00
63512.75,631.00,836.00
63512.75,629.00,832.00
63512.75,624.00,832.00
63512.75,621.00,836.00
63512.75,615.00,832.00
63512.75,609.00,832.00
63512.75,603.00,836.00
63512.75,597.00,832.00
63512.75,593.00,832.00
63512.75,590.00,836.00
63512.75,589.00,832.00
63512.75,587.00,832.00
63512.75,586.00,836.00
63512.75,586.00,832.00
63512.75,582.00,832.00
63512.76,578.00,836.00
63512.76,574.00,832.00
63512.76,572.00,832.00
63512.76,568.00,836.00
63512.76,562.00,832.00
63512.76,553.00,832.00
63512.76,546.00,836.00
63512.76,541.00,832.00
63512.76,535.00,832.00
63512.76,533.00,836.00
63512.76,527.00,832.00
63512.76,524.00,836.00
63512.76,524.00,832.00
63512.76,522.00,832.00
63512.76,520.00,836.00
63512.76,517.00,832.00
63512.77,518.00,832.00
63512.77,516.00,836.00
63512.77,512.00,832.00
63512.77,507.00,832.00
63512.77,502.00,836.00
63512.77,496.00,832.00
63512.77,491.00,832.00
63512.77,489.00,836.00
63512.77,487.00,832.00
63512.77,486.00,832.00
63512.77,484.00,836.00
63512.77,482.00,832.00
63512.77,478.00,832.00
63512.77,476.00,836.00
63512.77,472.00,832.00
63512.77,468.00,832.00
63512.79,463.00,836.00
63512.79,457.00,832.00
63512.79,451.00,832.00
63512.79,449.00,836.00
63512.79,444.00,832.00
63512.79,443.00,832.00
63512.79,443.00,836.00
63512.79,444.00,832.00
63512.79,444.00,832.00
63512.79,441.00,836.00
63512.79,437.00,832.00
63512.79,433.00,848.00
63512.79,429.00,820.00
63512.79,426.00,832.00
63512.79,423.00,836.00
63512.79,419.00,832.00
63512.80,417.00,832.00
63512.80,416.00,836.00
63512.80,416.00,832.00
63512.80,417.00,832.00
63512.80,417.00,836.00
63512.80,418.00,832.00
63512.80,416.00,832.00
63512.80,412.00,836.00
63512.80,408.00,832.00
63512.80,404.00,832.00
63512.80,402.00,836.00
63512.80,401.00,832.00
63512.80,399.00,832.00
63512.80,398.00,836.00
63512.80,397.00,832.00
63512.80,395.00,832.00
63512.81,396.00,836.00
63512.81,394.00,832.00
63512.81,394.00,832.00
63512.81,391.00,836.00
63512.81,392.00,832.00
63512.81,389.00,832.00
63512.81,384.00,836.00
63512.81,381.00,832.00
63512.81,378.00,836.00
63512.81,375.00,832.00
63512.81,375.00,832.00
63512.81,376.00,836.00
63512.81,376.00,832.00
63512.81,376.00,832.00
63512.81,378.00,836.00
63512.81,381.00,832.00
63512.83,383.00,832.00
63512.83,384.00,836.00
63512.83,383.00,832.00
63512.83,382.00,832.00
63512.83,380.00,836.00
63512.83,380.00,832.00
63512.83,381.00,832.00
63512.83,382.00,836.00
63512.83,382.00,832.00
63512.83,384.00,832.00
63512.83,385.00,836.00
63512.83,383.00,832.00
63512.83,382.00,832.00
63512.83,382.00,836.00
63512.83,384.00,832.00
63512.83,388.00,832.00
63512.84,390.00,836.00
63512.84,392.00,832.00
63512.84,390.00,832.00
63512.84,388.00,836.00
63512.84,386.00,832.00
63512.84,385.00,832.00
63512.84,386.00,836.00
63512.84,387.00,832.00
63512.84,389.00,832.00
63512.84,390.00,836.00
63512.84,390.00,832.00
63512.84,392.00,836.00
63512.84,395.00,832.00
63512.84,395.00,832.00
63512.84,394.00,836.00
63512.84,392.00,832.00
63512.85,394.00,832.00
63512.85,393.00,836.00
63512.85,392.00,832.00
63512.85,392.00,832.00
63512.85,392.00,836.00
63512.85,395.00,832.00
63512.85,398.00,832.00
63512.85,401.00,836.00
63512.85,402.00,832.00
63512.85,403.00,832.00
63512.85,404.00,836.00
63512.85,405.00,832.00
63512.85,402.00,832.00
63512.85,400.00,836.00
63512.85,402.00,832.00
63512.85,402.00,832.00
63512.86,399.00,836.00
63512.86,396.00,832.00
63512.86,396.00,832.00
63512.86,398.00,836.00
63512.86,401.00,832.00
63512.86,403.00,832.00
63512.86,407.00,836.00
63512.86,408.00,832.00
63512.86,410.00,836.00
63512.86,410.00,832.00
63512.86,408.00,832.00
63512.86,407.00,836.00
63512.86,405.00,832.00
63512.86,406.00,832.00
63512.86,406.00,836.00
63512.86,403.00,832.00
63512.88,403.00,832.00
63512.88,401.00,836.00
63512.88,400.00,832.00
63512.88,399.00,832.00
63512.88,398.00,836.00
63512.88,399.00,832.00
63512.88,399.00,832.00
63512.88,401.00,836.00
63512.88,403.00,832.00
63512.88,402.00,832.00
63512.88,403.00,836.00
63512.88,402.00,832.00
63512.88,403.00,832.00
63512.88,401.00,836.00
63512.88,400.00,832.00
63512.88,400.00,832.00
63512.89,401.00,836.00
63512.89,402.00,832.00
63512.89,406.00,832.00
63512.89,410.00,836.00
63512.89,413.00,832.00
63512.89,415.00,832.00
63512.89,413.00,836.00
63512.89,413.00,832.00
63512.89,411.00,832.00
63512.89,410.00,836.00
63512.89,410.00,832.00
63512.89,411.00,836.00
63512.89,412.00,832.00
63512.89,412.00,832.00
63512.89,413.00,836.00
63512.89,416.00,832.00
63512.90,418.00,832.00
63512.90,421.00,836.00
63512.90,423.00,832.00
63512.90,423.00,832.00
63512.90,423.00,836.00
63512.90,422.00,832.00
63512.90,420.00,832.00
63512.90,422.00,836.00
63512.90,421.00,832.00
63512.90,423.00,832.00
63512.90,425.00,836.00
63512.90,424.00,832.00
63512.90,423.00,832.00
63512.90,422.00,836.00
63512.90,424.00,832.00
63512.90,426.00,832.00
63512.92,428.00,836.00
63512.92,430.00,832.00
63512.92,428.00,832.00
63512.92,429.00,836.00
63512.92,431.00,832.00
63512.92,428.00,832.00
63512.92,430.00,836.00
63512.92,431.00,832.00
63512.92,437.00,832.00
63512.92,440.00,836.00
63512.92,438.00,832.00
63512.92,436.00,836.00
63512.92,434.00,832.00
63512.92,436.00,832.00
63512.92,439.00,836.00
63512.92,440.00,832.00
63512.93,443.00,832.00
63512.93,444.00,836.00
63512.93,443.00,832.00
63512.93,443.00,832.00
63512.93,441.00,836.00
63512.93,439.00,832.00
63512.93,441.00,832.00
63512.93,443.00,836.00
63512.93,443.00,832.00
63512.93,442.00,832.00
63512.93,443.00,836.00
63512.93,445.00,832.00
63512.93,447.00,832.00
63512.93,446.00,836.00
63512.93,446.00,832.00
63512.93,444.00,832.00
63512.95,443.00,836.00
63512.95,441.00,832.00
63512.95,442.00,832.00
63512.95,444.00,836.00
63512.95,443.00,832.00
63512.95,445.00,832.00
63512.95,445.00,836.00
63512.95,441.00,836.00
63512.95,438.00,832.00
63512.95,436.00,832.00
63512.95,436.00,832.00
63512.95,437.00,836.00
63512.95,440.00,832.00
63512.95,444.00,832.00
63512.95,444.00,836.00
63512.95,444.00,832.00
63512.96,445.00,832.00
63512.96,444.00,836.00
63512.96,447.00,832.00
63512.96,446.00,832.00
63512.96,448.00,836.00
63512.96,450.00,832.00
63512.96,448.00,832.00
63512.96,445.00,836.00
63512.96,442.00,832.00
63512.96,441.00,832.00
63512.96,443.00,836.00
63512.96,446.00,832.00
63512.96,450.00,832.00
63512.96,449.00,836.00
63512.96,449.00,832.00
63512.96,452.00,832.00
63512.97,452.00,836.00
63512.97,454.00,832.00
63512.97,454.00,832.00
63512.97,453.00,836.00
63512.97,452.00,832.00
63512.97,450.00,832.00
63512.97,448.00,836.00
63512.97,450.00,832.00
63512.97,452.00,832.00
63512.97,453.00,836.00
63512.97,455.00,832.00
63512.97,452.00,836.00
63512.97,450.00,832.00
63512.97,447.00,832.00
63512.97,446.00,836.00
63512.97,446.00,832.00
63512.99,443.00,832.00
63512.99,446.00,836.00
63512.99,446.00,832.00
63512.99,445.00,832.00
63512.99,443.00,836.00
63512.99,441.00,832.00
63512.99,442.00,832.00
63512.99,443.00,836.00
63512.99,444.00,832.00
63512.99,445.00,832.00
63512.99,446.00,836.00
63512.99,449.00,832.00
63512.99,451.00,832.00
63512.99,450.00,836.00
63512.99,447.00,832.00
63512.99,443.00,832.00
63513.00,444.00,836.00
63513.00,442.00,832.00
63513.00,438.00,832.00
63513.00,435.00,836.00
63513.00,435.00,832.00
63513.00,436.00,832.00
63513.00,439.00,836.00
63513.00,438.00,832.00
63513.00,440.00,832.00
63513.00,440.00,836.00
63513.00,440.00,832.00
63513.00,441.00,836.00
63513.00,440.00,832.00
63513.00,439.00,832.00
63513.00,439.00,836.00
63513.00,440.00,832.00
63513.01,439.00,832.00
63513.01,436.00,836.00
63513.01,435.00,832.00
63513.01,438.00,832.00
63513.01,440.00,836.00
63513.01,441.00,832.00
63513.01,443.00,832.00
63513.01,443.00,836.00
63513.01,444.00,832.00
63513.01,444.00,832.00
63513.01,443.00,836.00
63513.01,445.00,832.00
63513.01,446.00,832.00
63513.01,449.00,836.00
63513.01,452.00,832.00
63513.01,453.00,832.00
63513.03,452.00,836.00
63513.03,450.00,832.00
63513.03,449.00,832.00
63513.03,448.00,836.00
63513.03,448.00,832.00
63513.03,451.00,832.00
63513.03,449.00,836.00
63513.03,450.00,832.00
63513.03,452.00,836.00
63513.03,453.00,832.00
63513.03,452.00,832.00
63513.03,449.00,836.00
63513.03,449.00,832.00
63513.03,447.00,832.00
63513.03,445.00,836.00
63513.03,444.00,832.00
63513.04,444.00,832.00
63513.04,445.00,836.00
63513.04,447.00,832.00
63513.04,448.00,832.00
63513.04,449.00,836.00
63513.04,449.00,832.00
63513.04,445.00,832.00
63513.04,443.00,836.00
63513.04,440.00,832.00
63513.04,439.00,832.00
63513.04,438.00,836.00
63513.04,440.00,832.00
63513.04,440.00,832.00
63513.04,441.00,836.00
63513.04,442.00,832.00
63513.04,443.00,832.00
63513.05,445.00,836.00
63513.05,447.00,832.00
63513.05,451.00,832.00
63513.05,453.00,836.00
63513.05,455.00,832.00
63513.05,456.00,832.00
63513.05,453.00,836.00
63513.05,453.00,832.00
63513.05,452.00,832.00
63513.05,453.00,836.00
63513.05,456.00,832.00
63513.05,455.00,836.00
63513.05,452.00,832.00
63513.05,450.00,832.00
63513.05,451.00,836.00
63513.05,453.00,832.00
63513.06,452.00,832.00
63513.06,454.00,836.00
63513.06,453.00,832.00
63513.06,455.00,832.00
63513.06,458.00,836.00
63513.06,459.00,832.00
63513.06,460.00,832.00
63513.06,458.00,836.00
63513.06,460.00,832.00
63513.06,461.00,832.00
63513.06,459.00,836.00
63513.06,455.00,832.00
63513.06,453.00,832.00
63513.06,455.00,836.00
63513.06,453.00,832.00
63513.06,454.00,832.00
63513.08,456.00,836.00
63513.08,458.00,832.00
63513.08,457.00,832.00
63513.08,455.00,836.00
63513.08,452.00,832.00
63513.08,449.00,832.00
63513.08,448.00,836.00
63513.08,449.00,832.00
63513.08,448.00,832.00
63513.08,447.00,836.00
63513.08,446.00,832.00
63513.08,449.00,836.00
63513.08,452.00,832.00
63513.08,452.00,832.00
63513.08,455.00,836.00
63513.08,455.00,832.00
63513.09,453.00,832.00
63513.09,451.00,836.00
63513.09,452.00,832.00
63513.09,455.00,832.00
63513.09,454.00,836.00
63513.09,457.00,832.00
63513.09,459.00,832.00
63513.09,457.00,836.00
63513.09,457.00,832.00
63513.09,455.00,832.00
63513.09,455.00,836.00
63513.09,458.00,832.00
63513.09,459.00,832.00
63513.09,464.00,836.00
63513.09,464.00,832.00
63513.09,466.00,832.00
63513.11,466.00,836.00
63513.11,467.00,832.00
63513.11,468.00,832.00
63513.11,466.00,836.00
63513.11,468.00,832.00
63513.11,469.00,832.00
63513.11,468.00,836.00
63513.11,467.00,832.00
63513.11,468.00,832.00
63513.11,464.00,836.00
63513.11,465.00,832.00
63513.11,468.00,836.00
63513.11,471.00,832.00
63513.11,473.00,832.00
63513.11,471.00,836.00
63513.11,472.00,832.00
63513.12,473.00,832.00
63513.12,471.00,836.00
63513.12,468.00,832.00
63513.12,467.00,832.00
63513.12,467.00,836.00
63513.12,464.00,832.00
63513.12,462.00,832.00
63513.12,466.00,836.00
63513.12,468.00,832.00
63513.12,471.00,832.00
63513.12,474.00,836.00
63513.12,472.00,832.00
63513.12,472.00,832.00
63513.12,469.00,836.00
63513.12,467.00,832.00
63513.12,467.00,832.00
63513.13,467.00,836.00
63513.13,470.00,832.00
63513.13,471.00,832.00
63513.13,471.00,836.00
63513.13,470.00,832.00
63513.13,467.00,832.00
63513.13,467.00,836.00
63513.13,467.00,832.00
63513.13,467.00,832.00
63513.13,469.00,836.00
63513.13,470.00,832.00
63513.13,473.00,836.00
63513.13,477.00,832.00
63513.13,478.00,832.00
63513.13,475.00,848.00
63513.13,474.00,820.00
63513.15,477.00,832.00
63513.15,480.00,836.00
63513.15,477.00,832.00
63513.15,474.00,832.00
63513.15,473.00,836.00
63513.15,473.00,832.00
63513.15,474.00,832.00
63513.15,473.00,836.00
63513.15,476.00,832.00
63513.15,479.00,832.00
63513.15,481.00,836.00
63513.15,483.00,832.00
63513.15,482.00,832.00
63513.15,481.00,836.00
63513.15,480.00,832.00
63513.15,483.00,832.00
63513.16,484.00,836.00
63513.16,482.00,832.00
63513.16,480.00,832.00
63513.16,480.00,836.00
63513.16,481.00,832.00
63513.16,484.00,832.00
63513.16,485.00,836.00
63513.16,485.00,832.00
63513.16,483.00,836.00
63513.16,480.00,832.00
63513.16,476.00,832.00
63513.16,474.00,836.00
63513.16,474.00,832.00
63513.16,477.00,832.00
63513.16,481.00,836.00
63513.16,484.00,832.00
63513.17,484.00,832.00
63513.17,484.00,836.00
63513.17,484.00,832.00
63513.17,482.00,832.00
63513.17,481.00,836.00
63513.17,484.00,832.00
63513.17,486.00,832.00
63513.17,486.00,836.00
63513.17,486.00,832.00
63513.17,487.00,832.00
63513.17,486.00,836.00
63513.17,485.00,832.00
63513.17,485.00,832.00
63513.17,481.00,836.00
63513.17,480.00,832.00
63513.17,477.00,832.00
63513.19,475.00,836.00
63513.19,474.00,832.00
63513.19,477.00,832.00
63513.19,481.00,836.00
63513.19,485.00,832.00
63513.19,487.00,832.00
63513.19,486.00,836.00
63513.19,483.00,832.00
63513.19,480.00,832.00
63513.19,477.00,836.00
63513.19,476.00,832.00
63513.19,478.00,836.00
63513.19,479.00,832.00
63513.19,478.00,832.00
63513.19,477.00,836.00
63513.19,474.00,832.00
63513.20,471.00,832.00
63513.20,471.00,836.00
63513.20,468.00,832.00
63513.20,467.00,832.00
63513.20,466.00,836.00
63513.20,465.00,832.00
63513.20,464.00,832.00
63513.20,461.00,836.00
63513.20,461.00,832.00
63513.20,461.00,832.00
63513.20,465.00,836.00
63513.20,467.00,832.00
63513.20,466.00,832.00
63513.20,466.00,836.00
63513.20,466.00,832.00
63513.20,469.00,832.00
63513.21,470.00,836.00
63513.21,470.00,832.00
63513.21,471.00,832.00
63513.21,473.00,836.00
63513.21,473.00,832.00
63513.21,471.00,832.00
63513.21,470.00,836.00
63513.21,472.00,832.00
63513.21,475.00,836.00
63513.21,479.00,832.00
63513.21,477.00,832.00
63513.21,475.00,836.00
63513.21,475.00,832.00
63513.21,476.00,832.00
63513.21,480.00,836.00
63513.21,483.00,832.00
63513.23,486.00,832.00
63513.23,488.00,836.00
63513.23,491.00,832.00
63513.23,490.00,832.00
63513.23,487.00,836.00
63513.23,485.00,832.00
63513.23,484.00,832.00
63513.23,485.00,836.00
63513.23,485.00,832.00
63513.23,482.00,832.00
63513.23,479.00,836.00
63513.23,478.00,832.00
63513.23,480.00,832.00
63513.23,480.00,836.00
63513.23,480.00,832.00
63513.23,480.00,832.00
63513.24,480.00,836.00
63513.24,480.00,832.00
63513.24,480.00,832.00
63513.24,478.00,836.00
63513.24,478.00,832.00
63513.24,478.00,832.00
63513.24,480.00,836.00
63513.24,477.00,832.00
63513.24,476.00,832.00
63513.24,474.00,836.00
63513.24,473.00,832.00
63513.24,474.00,836.00
63513.24,475.00,832.00
63513.24,478.00,832.00
63513.24,481.00,836.00
63513.24,481.00,832.00
63513.25,480.00,832.00
63513.25,480.00,836.00
63513.25,480.00,832.00
63513.25,480.00,832.00
63513.25,483.00,836.00
63513.25,486.00,832.00
63513.25,486.00,832.00
63513.25,487.00,836.00
63513.25,487.00,832.00
63513.25,486.00,832.00
63513.25,487.00,836.00
63513.25,491.00,832.00
63513.25,493.00,832.00
63513.25,493.00,836.00
63513.25,491.00,832.00
63513.25,488.00,832.00
63513.27,486.00,836.00
63513.27,483.00,832.00
63513.27,481.00,832.00
63513.27,481.00,836.00
63513.27,480.00,832.00
63513.27,482.00,832.00
63513.27,482.00,836.00
63513.27,485.00,832.00
63513.27,487.00,832.00
63513.27,490.00,836.00
63513.27,491.00,832.00
63513.27,490.00,836.00
63513.27,489.00,832.00
63513.27,487.00,832.00
63513.27,484.00,836.00
63513.27,479.00,832.00
63513.28,478.00,832.00
63513.28,478.00,836.00
63513.28,479.00,832.00
63513.28,479.00,832.00
63513.28,475.00,836.00
63513.28,471.00,832.00
63513.28,468.00,832.00
63513.28,469.00,836.00
63513.28,472.00,832.00
63513.28,474.00,832.00
63513.28,479.00,836.00
63513.28,483.00,832.00
63513.28,485.00,832.00
63513.28,485.00,836.00
63513.28,481.00,832.00
63513.28,479.00,832.00
63513.29,479.00,836.00
63513.29,478.00,832.00
63513.29,477.00,832.00
63513.29,473.00,836.00
63513.29,471.00,832.00
63513.29,472.00,832.00
63513.29,474.00,836.00
63513.29,478.00,832.00
63513.29,479.00,836.00
63513.29,481.00,832.00
63513.29,483.00,836.00
63513.29,484.00,832.00
63513.29,484.00,832.00
63513.29,484.00,832.00
63513.29,486.00,836.00
63513.29,489.00,832.00
63513.31,492.00,832.00
63513.31,493.00,836.00
63513.31,493.00,832.00
63513.31,493.00,832.00
63513.31,491.00,836.00
63513.31,492.00,832.00
63513.31,493.00,832.00
63513.31,496.00,836.00
63513.31,497.00,832.00
63513.31,496.00,832.00
63513.31,496.00,836.00
63513.31,493.00,832.00
63513.31,493.00,832.00
63513.31,492.00,836.00
63513.31,492.00,832.00
63513.31,493.00,832.00
63513.32,490.00,836.00
63513.32,490.00,832.00
63513.32,490.00,832.00
63513.32,488.00,836.00
63513.32,489.00,832.00
63513.32,489.00,832.00
63513.32,492.00,836.00
63513.32,491.00,832.00
63513.32,491.00,832.00
63513.32,492.00,836.00
63513.32,491.00,832.00
63513.32,492.00,836.00
63513.32,493.00,832.00
63513.32,493.00,832.00
63513.32,493.00,836.00
63513.32,488.00,832.00
63513.33,486.00,832.00
63513.33,484.00,836.00
63513.33,483.00,832.00
63513.33,485.00,832.00
63513.33,486.00,836.00
63513.33,487.00,832.00
63513.33,487.00,832.00
63513.33,485.00,836.00
63513.33,483.00,832.00
63513.33,480.00,832.00
63513.33,480.00,836.00
63513.33,482.00,832.00
63513.33,482.00,832.00
63513.33,482.00,836.00
63513.33,484.00,832.00
63513.33,485.00,832.00
63513.35,488.00,836.00
63513.35,489.00,832.00
63513.35,491.00,832.00
63513.35,491.00,836.00
63513.35,492.00,832.00
63513.35,490.00,832.00
63513.35,489.00,836.00
63513.35,487.00,832.00
63513.35,486.00,832.00
63513.35,487.00,836.00
63513.35,490.00,832.00
63513.35,492.00,836.00
63513.35,492.00,832.00
63513.35,491.00,832.00
63513.35,492.00,836.00
63513.35,493.00,832.00
63513.36,496.00,832.00
63513.36,494.00,836.00
63513.36,496.00,832.00
63513.36,496.00,832.00
63513.36,495.00,836.00
63513.36,493.00,832.00
63513.36,490.00,832.00
63513.36,492.00,836.00
63513.36,492.00,832.00
63513.36,493.00,832.00
63513.36,493.00,836.00
63513.36,491.00,832.00
63513.36,492.00,832.00
63513.36,492.00,836.00
63513.36,492.00,832.00
63513.36,492.00,832.00
63513.37,494.00,836.00
63513.37,495.00,832.00
63513.37,497.00,832.00
63513.37,498.00,836.00
63513.37,497.00,832.00
63513.37,495.00,832.00
63513.37,492.00,836.00
63513.37,490.00,832.00
63513.37,489.00,836.00
63513.37,486.00,832.00
63513.37,486.00,832.00
63513.37,485.00,836.00
63513.37,488.00,832.00
63513.37,489.00,832.00
63513.37,490.00,836.00
63513.37,493.00,832.00
63513.38,492.00,832.00
63513.38,490.00,836.00
63513.38,488.00,832.00
63513.38,488.00,832.00
63513.38,488.00,836.00
63513.38,491.00,832.00
63513.38,495.00,832.00
63513.38,497.00,836.00
63513.38,498.00,832.00
63513.38,498.00,832.00
63513.38,496.00,836.00
63513.38,495.00,832.00
63513.38,499.00,832.00
63513.38,499.00,836.00
63513.38,501.00,832.00
63513.38,500.00,832.00
63513.40,498.00,836.00
63513.40,497.00,832.00
63513.40,496.00,832.00
63513.40,496.00,836.00
63513.40,497.00,832.00
63513.40,498.00,832.00
63513.40,500.00,836.00
63513.40,500.00,832.00
63513.40,504.00,832.00
63513.40,505.00,836.00
63513.40,507.00,832.00
63513.40,510.00,836.00
63513.40,513.00,832.00
63513.40,517.00,832.00
63513.40,518.00,836.00
63513.40,516.00,832.00
63513.41,516.00,832.00
63513.41,516.00,836.00
63513.41,513.00,832.00
63513.41,513.00,832.00
63513.41,512.00,836.00
63513.41,510.00,832.00
63513.41,510.00,832.00
63513.41,508.00,836.00
63513.41,511.00,832.00
63513.41,514.00,832.00
63513.41,519.00,836.00
63513.41,524.00,832.00
63513.41,527.00,832.00
63513.41,529.00,836.00
63513.41,529.00,832.00
63513.41,528.00,832.00
63513.43,529.00,836.00
63513.43,528.00,832.00
63513.43,530.00,832.00
63513.43,530.00,836.00
63513.43,531.00,832.00
63513.43,533.00,832.00
63513.43,533.00,836.00
63513.43,533.00,832.00
63513.43,530.00,836.00
63513.43,529.00,832.00
63513.43,530.00,832.00
63513.43,529.00,836.00
63513.43,530.00,832.00
63513.43,533.00,832.00
63513.43,535.00,836.00
63513.43,537.00,832.00
63513.44,540.00,832.00
63513.44,540.00,836.00
63513.44,539.00,832.00
63513.44,536.00,832.00
63513.44,535.00,836.00
63513.44,536.00,832.00
63513.44,539.00,832.00
63513.44,541.00,836.00
63513.44,541.00,832.00
63513.44,543.00,832.00
63513.44,542.00,836.00
63513.44,540.00,832.00
63513.44,538.00,832.00
63513.44,535.00,836.00
63513.44,533.00,832.00
63513.44,535.00,832.00
63513.45,536.00,836.00
63513.45,533.00,832.00
63513.45,532.00,832.00
63513.45,531.00,836.00
63513.45,529.00,832.00
63513.45,529.00,832.00
63513.45,528.00,836.00
63513.45,529.00,832.00
63513.45,529.00,832.00
63513.45,528.00,836.00
63513.45,525.00,832.00
63513.45,520.00,836.00
63513.45,517.00,832.00
63513.45,514.00,832.00
63513.45,511.00,836.00
63513.45,509.00,832.00
63513.47,502.00,832.00
63513.47,499.00,836.00
63513.47,495.00,832.00
63513.47,494.00,832.00
63513.47,489.00,836.00
63513.47,487.00,832.00
63513.47,486.00,832.00
63513.47,484.00,836.00
63513.47,479.00,832.00
63513.47,475.00,832.00
63513.47,473.00,836.00
63513.47,471.00,832.00
63513.47,467.00,832.00
63513.47,462.00,836.00
63513.47,457.00,832.00
63513.47,451.00,832.00
63513.48,443.00,836.00
63513.48,435.00,832.00
63513.48,430.00,832.00
63513.48,425.00,836.00
63513.48,424.00,832.00
63513.48,422.00,832.00
63513.48,418.00,836.00
63513.48,413.00,832.00
63513.48,407.00,832.00
63513.48,402.00,836.00
63513.48,397.00,832.00
63513.48,396.00,836.00
63513.48,394.00,832.00
63513.48,391.00,832.00
63513.48,388.00,836.00
63513.48,385.00,832.00
63513.49,381.00,832.00
63513.49,378.00,840.00
63513.49,374.00,828.00
63513.49,371.00,832.00
63513.49,368.00,836.00
63513.49,364.00,832.00
63513.49,362.00,832.00
63513.49,358.00,836.00
63513.49,356.00,832.00
63513.49,350.00,832.00
63513.49,347.00,836.00
63513.49,343.00,832.00
63513.49,338.00,832.00
63513.49,333.00,836.00
63513.49,331.00,832.00
63513.49,331.00,832.00
63513.51,330.00,836.00
63513.51,328.00,832.00
63513.51,324.00,832.00
63513.51,321.00,836.00
63513.51,316.00,832.00
63513.51,313.00,832.00
63513.51,308.00,836.00
63513.51,305.00,832.00
63513.51,305.00,832.00
63513.51,306.00,836.00
63513.51,304.00,832.00
63513.51,301.00,836.00
63513.51,296.00,832.00
63513.51,293.00,832.00
63513.51,288.00,836.00
63513.51,286.00,832.00
63513.52,285.00,832.00
63513.52,283.00,836.00
63513.52,284.00,832.00
63513.52,283.00,832.00
63513.52,282.00,836.00
63513.52,280.00,832.00
63513.52,277.00,832.00
63513.52,276.00,836.00
63513.52,272.00,832.00
63513.52,269.00,832.00
63513.52,265.00,836.00
63513.52,264.00,832.00
63513.52,265.00,832.00
63513.52,264.00,836.00
63513.52,262.00,832.00
63513.52,262.00,832.00
63513.53,259.00,836.00
63513.53,253.00,832.00
63513.53,250.00,832.00
63513.53,246.00,836.00
63513.53,246.00,832.00
63513.53,246.00,832.00
63513.53,246.00,836.00
63513.53,245.00,832.00
63513.53,243.00,832.00
63513.53,242.00,836.00
63513.53,240.00,832.00
63513.53,238.00,836.00
63513.53,238.00,832.00
63513.53,239.00,832.00
63513.53,240.00,836.00
63513.53,240.00,832.00
63513.55,237.00,832.00
63513.55,236.00,836.00
63513.55,234.00,832.00
63513.55,233.00,832.00
63513.55,230.00,836.00
63513.55,230.00,832.00
63513.55,229.00,832.00
63513.55,230.00,836.00
63513.55,228.00,832.00
63513.55,227.00,832.00
63513.55,225.00,836.00
63513.55,223.00,832.00
63513.55,224.00,832.00
63513.55,221.00,836.00
63513.55,218.00,832.00
63513.55,215.00,832.00
63513.56,216.00,836.00
63513.56,217.00,832.00
63513.56,217.00,832.00
63513.56,216.00,836.00
63513.56,213.00,832.00
63513.56,210.00,832.00
63513.56,207.00,836.00
63513.56,205.00,832.00
63513.56,204.00,832.00
63513.56,206.00,836.00
63513.56,206.00,832.00
63513.56,208.00,836.00
63513.56,205.00,832.00
63513.56,206.00,832.00
63513.56,204.00,836.00
63513.56,201.00,832.00
63513.57,199.00,832.00
63513.57,196.00,836.00
63513.57,197.00,832.00
63513.57,200.00,832.00
63513.57,199.00,836.00
63513.57,198.00,832.00
63513.57,199.00,832.00
63513.57,197.00,836.00
63513.57,195.00,832.00
63513.57,192.00,832.00
63513.57,191.00,836.00
63513.57,189.00,832.00
63513.57,189.00,832.00
63513.57,191.00,836.00
63513.57,189.00,832.00
63513.57,189.00,832.00
63513.59,189.00,836.00
63513.59,189.00,832.00
63513.59,188.00,832.00
63513.59,186.00,836.00
63513.59,185.00,832.00
63513.59,186.00,832.00
63513.59,189.00,836.00
63513.59,190.00,832.00
63513.59,191.00,836.00
63513.59,190.00,832.00
63513.59,190.00,832.00
63513.59,189.00,836.00
63513.59,188.00,832.00
63513.59,188.00,832.00
63513.59,188.00,836.00
63513.59,189.00,832.00
63513.60,190.00,832.00
63513.60,186.00,836.00
63513.60,185.00,832.00
63513.60,184.00,832.00
63513.60,182.00,836.00
63513.60,180.00,832.00
63513.60,181.00,832.00
63513.60,184.00,836.00
63513.60,187.00,832.00
63513.60,188.00,832.00
63513.60,186.00,836.00
63513.60,187.00,832.00
63513.60,186.00,832.00
63513.60,185.00,836.00
63513.60,182.00,832.00
63513.60,182.00,832.00
63513.61,182.00,836.00
63513.61,183.00,832.00
63513.61,185.00,832.00
63513.61,182.00,836.00
63513.61,180.00,832.00
63513.61,179.00,832.00
63513.61,179.00,836.00
63513.61,178.00,832.00
63513.61,175.00,832.00
63513.61,173.00,836.00
63513.61,174.00,832.00
63513.61,176.00,836.00
63513.61,178.00,832.00
63513.61,179.00,832.00
63513.61,180.00,836.00
63513.61,180.00,832.00
63513.63,179.00,832.00
63513.63,179.00,836.00
63513.63,177.00,832.00
63513.63,178.00,832.00
63513.63,180.00,836.00
63513.63,183.00,832.00
63513.63,180.00,832.00
63513.63,179.00,836.00
63513.63,176.00,832.00
63513.63,174.00,832.00
63513.63,171.00,836.00
63513.63,171.00,832.00
63513.63,172.00,832.00
63513.63,175.00,836.00
63513.63,177.00,832.00
63513.63,177.00,832.00
63513.64,179.00,836.00
63513.64,178.00,832.00
63513.64,177.00,832.00
63513.64,177.00,836.00
63513.64,178.00,832.00
63513.64,179.00,832.00
63513.64,179.00,836.00
63513.64,181.00,832.00
63513.64,180.00,832.00
63513.64,178.00,836.00
63513.64,178.00,832.00
63513.64,178.00,836.00
63513.64,175.00,832.00
63513.64,173.00,836.00
63513.64,174.00,832.00
63513.64,177.00,832.00
63513.65,179.00,832.00
63513.65,182.00,836.00
63513.65,183.00,832.00
63513.65,182.00,832.00
63513.65,181.00,836.00
63513.65,178.00,832.00
63513.65,178.00,832.00
63513.65,177.00,836.00
63513.65,179.00,832.00
63513.65,183.00,832.00
63513.65,185.00,836.00
63513.65,184.00,832.00
63513.65,183.00,832.00
63513.65,182.00,836.00
63513.65,179.00,832.00
63513.65,177.00,832.00
63513.67,177.00,836.00
63513.67,181.00,832.00
63513.67,184.00,832.00
63513.67,186.00,836.00
63513.67,185.00,832.00
63513.67,187.00,832.00
63513.67,186.00,836.00
63513.67,185.00,832.00
63513.67,184.00,832.00
63513.67,183.00,836.00
63513.67,185.00,832.00
63513.67,187.00,836.00
63513.67,190.00,832.00
63513.67,191.00,832.00
63513.67,192.00,836.00
63513.67,194.00,832.00
63513.68,195.00,832.00
63513.68,192.00,836.00
63513.68,192.00,832.00
63513.68,191.00,832.00
63513.68,192.00,836.00
63513.68,193.00,832.00
63513.68,194.00,832.00
63513.68,195.00,836.00
63513.68,193.00,832.00
63513.68,194.00,832.00
63513.68,194.00,836.00
63513.68,192.00,832.00
63513.68,193.00,832.00
63513.68,196.00,836.00
63513.68,199.00,832.00
63513.68,201.00,832.00
63513.70,199.00,836.00
63513.70,199.00,832.00
63513.70,199.00,832.00
63513.70,199.00,836.00
63513.70,199.00,832.00
63513.70,199.00,832.00
63513.70,202.00,836.00
63513.70,204.00,832.00
63513.70,207.00,836.00
63513.70,207.00,832.00
63513.70,208.00,832.00
63513.70,207.00,836.00
63513.70,207.00,832.00
63513.70,206.00,832.00
63513.70,206.00,836.00
63513.70,207.00,832.00
63513.71,211.00,832.00
63513.71,215.00,836.00
63513.71,218.00,832.00
63513.71,221.00,832.00
63513.71,224.00,836.00
63513.71,224.00,832.00
63513.71,225.00,832.00
63513.71,225.00,836.00
63513.71,226.00,832.00
63513.71,229.00,832.00
63513.71,233.00,836.00
63513.71,237.00,832.00
63513.71,239.00,832.00
63513.71,237.00,836.00
63513.71,239.00,832.00
63513.71,239.00,832.00
63513.72,238.00,836.00
63513.72,240.00,832.00
63513.72,244.00,832.00
63513.72,249.00,836.00
63513.72,252.00,832.00
63513.72,253.00,832.00
63513.72,254.00,836.00
63513.72,254.00,832.00
63513.72,255.00,836.00
63513.72,257.00,832.00
63513.72,257.00,832.00
63513.72,260.00,836.00
63513.72,262.00,832.00
63513.72,265.00,832.00
63513.72,264.00,836.00
63513.72,263.00,832.00
63513.73,265.00,832.00
63513.73,264.00,836.00
63513.73,264.00,832.00
63513.73,263.00,832.00
63513.73,264.00,836.00
63513.73,266.00,832.00
63513.73,269.00,832.00
63513.73,271.00,836.00
63513.73,272.00,832.00
63513.73,273.00,832.00
63513.73,273.00,836.00
63513.73,272.00,832.00
63513.73,272.00,832.00
63513.73,270.00,836.00
63513.73,272.00,832.00
63513.73,272.00,832.00
63513.75,274.00,836.00
63513.75,274.00,832.00
63513.75,273.00,832.00
63513.75,275.00,836.00
63513.75,272.00,832.00
63513.75,271.00,832.00
63513.75,271.00,836.00
63513.75,273.00,832.00
63513.75,276.00,832.00
63513.75,276.00,836.00
63513.75,275.00,832.00
63513.75,274.00,836.00
63513.75,273.00,832.00
63513.75,271.00,832.00
63513.75,270.00,836.00
63513.75,269.00,832.00
63513.76,270.00,832.00
63513.76,272.00,836.00
63513.76,276.00,832.00
63513.76,277.00,832.00
63513.76,278.00,836.00
63513.76,280.00,832.00
63513.76,282.00,832.00
63513.76,280.00,836.00
63513.76,278.00,832.00
63513.76,276.00,832.00
63513.76,278.00,836.00
63513.76,278.00,832.00
63513.76,279.00,832.00
63513.76,280.00,836.00
63513.76,279.00,832.00
63513.76,278.00,832.00
63513.77,278.00,836.00
63513.77,279.00,832.00
63513.77,281.00,832.00
63513.77,285.00,836.00
63513.77,290.00,832.00
63513.77,293.00,832.00
63513.77,296.00,836.00
63513.77,296.00,832.00
63513.77,298.00,832.00
63513.77,297.00,836.00
63513.77,299.00,832.00
63513.77,303.00,836.00
63513.77,307.00,832.00
63513.77,311.00,832.00
63513.77,310.00,836.00
63513.77,311.00,832.00
63513.78,312.00,832.00
63513.78,314.00,836.00
63513.78,319.00,832.00
63513.78,323.00,832.00
63513.78,330.00,836.00
63513.78,335.00,832.00
63513.78,339.00,832.00
63513.78,342.00,836.00
63513.78,342.00,832.00
63513.78,347.00,832.00
63513.78,352.00,836.00
63513.78,357.00,832.00
63513.78,360.00,832.00
63513.78,361.00,836.00
63513.78,365.00,832.00
63513.78,369.00,832.00
63513.80,372.00,836.00
63513.80,377.00,832.00
63513.80,381.00,832.00
63513.80,387.00,836.00
63513.80,390.00,832.00
63513.80,395.00,832.00
63513.80,400.00,836.00
63513.80,404.00,832.00
63513.80,410.00,832.00
63513.80,415.00,836.00
63513.80,421.00,832.00
63513.80,425.00,836.00
63513.80,429.00,832.00
63513.80,434.00,832.00
63513.80,441.00,836.00
63513.80,448.00,832.00
63513.81,455.00,832.00
63513.81,463.00,836.00
63513.81,466.00,832.00
63513.81,468.00,832.00
63513.81,470.00,836.00
63513.81,472.00,832.00
63513.81,478.00,832.00
63513.81,481.00,836.00
63513.81,488.00,832.00
63513.81,494.00,832.00
63513.81,501.00,836.00
63513.81,506.00,832.00
63513.81,510.00,832.00
63513.81,512.00,836.00
63513.81,517.00,832.00
63513.81,521.00,832.00
63513.83,524.00,836.00
63513.83,526.00,832.00
63513.83,527.00,832.00
63513.83,530.00,836.00
63513.83,532.00,832.00
63513.83,534.00,832.00
63513.83,535.00,836.00
63513.83,535.00,832.00
63513.83,536.00,832.00
63513.83,539.00,836.00
63513.83,541.00,832.00
63513.83,545.00,836.00
63513.83,548.00,832.00
63513.83,553.00,832.00
63513.83,560.00,836.00
63513.83,566.00,832.00
63513.84,569.00,832.00
63513.84,572.00,836.00
63513.84,574.00,832.00
63513.84,574.00,832.00
63513.84,577.00,840.00
63513.84,579.00,828.00
63513.84,581.00,832.00
63513.84,586.00,836.00
63513.84,588.00,832.00
63513.84,591.00,832.00
63513.84,594.00,836.00
63513.84,595.00,832.00
63513.84,594.00,832.00
63513.84,592.00,836.00
63513.84,593.00,832.00
63513.84,596.00,832.00
63513.85,595.00,836.00
63513.85,596.00,832.00
63513.85,599.00,832.00
63513.85,599.00,836.00
63513.85,601.00,832.00
63513.85,602.00,832.00
63513.85,603.00,836.00
63513.85,606.00,832.00
63513.85,605.00,832.00
63513.85,603.00,836.00
63513.85,603.00,832.00
63513.85,600.00,836.00
63513.85,601.00,832.00
63513.85,600.00,832.00
63513.85,601.00,836.00
63513.85,603.00,832.00
63513.87,602.00,832.00
63513.87,600.00,836.00
63513.87,600.00,832.00
63513.87,600.00,832.00
63513.87,600.00,836.00
63513.87,601.00,832.00
63513.87,601.00,832.00
63513.87,604.00,836.00
63513.87,609.00,832.00
63513.87,611.00,832.00
63513.87,614.00,836.00
63513.87,615.00,832.00
63513.87,615.00,832.00
63513.87,615.00,836.00
63513.87,614.00,832.00
63513.87,613.00,832.00
63513.88,614.00,836.00
63513.88,613.00,832.00
63513.88,612.00,832.00
63513.88,613.00,836.00
63513.88,608.00,832.00
63513.88,608.00,832.00
63513.88,606.00,836.00
63513.88,605.00,832.00
63513.88,607.00,832.00
63513.88,608.00,836.00
63513.88,607.00,832.00
63513.88,608.00,836.00
63513.88,605.00,832.00
63513.88,602.00,832.00
63513.88,600.00,836.00
63513.88,598.00,832.00
63513.89,600.00,832.00
63513.89,599.00,836.00
63513.89,598.00,832.00
63513.89,598.00,832.00
63513.89,594.00,836.00
63513.89,590.00,832.00
63513.89,587.00,832.00
63513.89,585.00,836.00
63513.89,586.00,832.00
63513.89,587.00,832.00
63513.89,586.00,836.00
63513.89,586.00,832.00
63513.89,584.00,832.00
63513.89,582.00,836.00
63513.89,580.00,832.00
63513.89,579.00,832.00
63513.90,577.00,836.00
63513.90,580.00,832.00
63513.90,578.00,832.00
63513.90,578.00,836.00
63513.90,577.00,832.00
63513.90,574.00,832.00
63513.90,573.00,836.00
63513.90,571.00,832.00
63513.90,572.00,832.00
63513.90,573.00,836.00
63513.90,574.00,832.00
63513.90,570.00,836.00
63513.90,571.00,832.00
63513.90,569.00,832.00
63513.90,567.00,836.00
63513.90,567.00,832.00
63513.92,566.00,832.00
63513.92,567.00,836.00
63513.92,569.00,832.00
63513.92,569.00,832.00
63513.92,569.00,836.00
63513.92,569.00,832.00
63513.92,566.00,832.00
63513.92,563.00,836.00
63513.92,559.00,832.00
63513.92,559.00,832.00
63513.92,560.00,836.00
63513.92,560.00,832.00
63513.92,560.00,832.00
63513.92,559.00,836.00
63513.92,557.00,832.00
63513.92,554.00,832.00
63513.93,552.00,836.00
63513.93,551.00,832.00
63513.93,551.00,832.00
63513.93,549.00,836.00
63513.93,550.00,832.00
63513.93,550.00,832.00
63513.93,548.00,836.00
63513.93,546.00,832.00
63513.93,544.00,836.00
63513.93,545.00,832.00
63513.93,547.00,832.00
63513.93,547.00,836.00
63513.93,548.00,832.00
63513.93,547.00,832.00
63513.93,546.00,836.00
63513.93,543.00,832.00
63513.95,541.00,832.00
63513.95,540.00,836.00
63513.95,540.00,832.00
63513.95,539.00,832.00
63513.95,538.00,836.00
63513.95,538.00,832.00
63513.95,536.00,832.00
63513.95,533.00,836.00
63513.95,531.00,832.00
63513.95,529.00,832.00
63513.95,532.00,836.00
63513.95,534.00,832.00
63513.95,536.00,832.00
63513.95,536.00,836.00
63513.95,535.00,832.00
63513.95,534.00,832.00
63513.96,532.00,836.00
63513.96,531.00,832.00
63513.96,530.00,832.00
63513.96,531.00,836.00
63513.96,529.00,832.00
63513.96,529.00,832.00
63513.96,528.00,836.00
63513.96,525.00,832.00
63513.96,523.00,832.00
63513.96,521.00,836.00
63513.96,521.00,832.00
63513.96,523.00,836.00
63513.96,523.00,832.00
63513.96,525.00,832.00
63513.96,524.00,836.00
63513.96,524.00,832.00
63513.97,521.00,832.00
63513.97,520.00,836.00
63513.97,521.00,832.00
63513.97,522.00,832.00
63513.97,522.00,836.00
63513.97,522.00,832.00
63513.97,522.00,832.00
63513.97,519.00,836.00
63513.97,517.00,832.00
63513.97,515.00,832.00
63513.97,513.00,836.00
63513.97,516.00,832.00
63513.97,515.00,832.00
63513.97,517.00,836.00
63513.97,518.00,832.00
63513.97,517.00,832.00
63513.99,515.00,836.00
63513.99,513.00,832.00
63513.99,512.00,832.00
63513.99,514.00,836.00
63513.99,516.00,832.00
63513.99,515.00,832.00
63513.99,516.00,836.00
63513.99,514.00,832.00
63513.99,511.00,832.00
63513.99,512.00,836.00
63513.99,512.00,832.00
63513.99,512.00,836.00
63513.99,513.00,832.00
63513.99,513.00,832.00
63513.99,513.00,836.00
63513.99,510.00,832.00
63514.00,506.00,836.00
63514.00,504.00,832.00
63514.00,502.00,832.00
63514.00,502.00,832.00
63514.00,505.00,836.00
63514.00,506.00,832.00
63514.00,508.00,832.00
63514.00,510.00,836.00
63514.00,509.00,832.00
63514.00,510.00,832.00
63514.00,509.00,836.00
63514.00,509.00,832.00
63514.00,512.00,832.00
63514.00,513.00,836.00
63514.00,514.00,832.00
63514.00,514.00,832.00
63514.01,512.00,836.00
63514.01,509.00,832.00
63514.01,509.00,832.00
63514.01,507.00,836.00
63514.01,509.00,832.00
63514.01,507.00,832.00
63514.01,507.00,836.00
63514.01,508.00,832.00
63514.01,505.00,832.00
63514.01,503.00,836.00
63514.01,504.00,832.00
63514.01,505.00,836.00
63514.01,508.00,832.00
63514.01,509.00,832.00
63514.01,509.00,836.00
63514.01,511.00,832.00
63514.03,508.00,832.00
63514.03,505.00,836.00
63514.03,503.00,832.00
63514.03,502.00,832.00
63514.03,503.00,836.00
63514.03,505.00,832.00
63514.03,505.00,832.00
63514.03,504.00,836.00
63514.03,504.00,832.00
63514.03,502.00,832.00
63514.03,499.00,836.00
63514.03,498.00,832.00
63514.03,498.00,832.00
63514.03,499.00,836.00
63514.03,501.00,832.00
63514.03,503.00,832.00
63514.04,505.00,836.00
63514.04,504.00,832.00
63514.04,503.00,832.00
63514.04,504.00,836.00
63514.04,505.00,832.00
63514.04,506.00,832.00
63514.04,504.00,836.00
63514.04,504.00,832.00
63514.04,502.00,832.00
63514.04,499.00,836.00
63514.04,496.00,832.00
63514.04,496.00,836.00
63514.04,497.00,832.00
63514.04,498.00,832.00
63514.04,499.00,836.00
63514.04,502.00,832.00
63514.06,504.00,832.00
63514.06,504.00,836.00
63514.06,502.00,832.00
63514.06,501.00,832.00
63514.06,501.00,836.00
63514.06,501.00,832.00
63514.06,500.00,832.00
63514.06,501.00,836.00
63514.06,500.00,832.00
63514.06,498.00,832.00
63514.06,495.00,836.00
63514.06,491.00,832.00
63514.06,491.00,832.00
63514.06,492.00,836.00
63514.06,493.00,832.00
63514.06,495.00,832.00
63514.07,496.00,836.00
63514.07,496.00,832.00
63514.07,495.00,832.00
63514.07,492.00,836.00
63514.07,494.00,832.00
63514.07,497.00,832.00
63514.07,497.00,836.00
63514.07,499.00,832.00
63514.07,499.00,836.00
63514.07,496.00,832.00
63514.07,494.00,832.00
63514.07,490.00,836.00
63514.07,491.00,832.00
63514.07,493.00,832.00
63514.07,494.00,836.00
63514.07,495.00,832.00
63514.08,497.00,832.00
63514.08,496.00,836.00
63514.08,495.00,832.00
63514.08,492.00,832.00
63514.08,491.00,836.00
63514.08,491.00,832.00
63514.08,491.00,832.00
63514.08,491.00,836.00
63514.08,492.00,832.00
63514.08,492.00,832.00
63514.08,492.00,836.00
63514.08,494.00,832.00
63514.08,494.00,832.00
63514.08,495.00,836.00
63514.08,495.00,832.00
63514.08,495.00,832.00
63514.09,498.00,836.00
63514.09,498.00,832.00
63514.09,498.00,832.00
63514.09,496.00,836.00
63514.09,495.00,832.00
63514.09,495.00,832.00
63514.09,495.00,836.00
63514.09,492.00,832.00
63514.09,493.00,832.00
63514.09,490.00,836.00
63514.09,488.00,832.00
63514.09,487.00,836.00
63514.09,485.00,832.00
63514.09,487.00,832.00
63514.09,489.00,836.00
63514.09,491.00,832.00
63514.11,492.00,832.00
63514.11,494.00,836.00
63514.11,493.00,832.00
63514.11,492.00,832.00
63514.11,489.00,836.00
63514.11,487.00,832.00
63514.11,489.00,832.00
63514.11,486.00,836.00
63514.11,487.00,832.00
63514.11,487.00,832.00
63514.11,487.00,836.00
63514.11,486.00,832.00
63514.11,485.00,832.00
63514.11,484.00,836.00
63514.11,486.00,832.00
63514.11,485.00,832.00
63514.12,485.00,836.00
63514.12,488.00,832.00
63514.12,488.00,832.00
63514.12,488.00,836.00
63514.12,486.00,832.00
63514.12,484.00,832.00
63514.12,485.00,836.00
63514.12,484.00,832.00
63514.12,482.00,832.00
63514.12,483.00,836.00
63514.12,481.00,832.00
63514.12,480.00,836.00
63514.12,478.00,832.00
63514.12,477.00,832.00
63514.12,480.00,836.00
63514.12,480.00,832.00
63514.13,481.00,832.00
63514.13,483.00,836.00
63514.13,483.00,832.00
63514.13,482.00,832.00
63514.13,480.00,836.00
63514.13,479.00,832.00
63514.13,480.00,832.00
63514.13,481.00,836.00
63514.13,480.00,832.00
63514.13,482.00,832.00
63514.13,483.00,836.00
63514.13,482.00,832.00
63514.13,481.00,832.00
63514.13,480.00,836.00
63514.13,482.00,832.00
63514.13,482.00,832.00
63514.15,482.00,836.00
63514.15,482.00,832.00
63514.15,483.00,832.00
63514.15,482.00,836.00
63514.15,481.00,832.00
63514.15,480.00,832.00
63514.15,479.00,836.00
63514.15,480.00,832.00
63514.15,479.00,832.00
63514.15,480.00,836.00
63514.15,481.00,832.00
63514.15,480.00,836.00
63514.15,479.00,832.00
63514.15,479.00,832.00
63514.15,479.00,836.00
63514.15,481.00,832.00
63514.16,483.00,832.00
63514.16,483.00,836.00
63514.16,485.00,832.00
63514.16,485.00,832.00
63514.16,484.00,836.00
63514.16,484.00,832.00
63514.16,483.00,832.00
63514.16,482.00,836.00
63514.16,482.00,832.00
63514.16,481.00,832.00
63514.16,482.00,836.00
63514.16,482.00,832.00
63514.16,482.00,832.00
63514.16,481.00,836.00
63514.16,480.00,832.00
63514.16,481.00,832.00
63514.17,481.00,836.00
63514.17,481.00,832.00
63514.17,483.00,832.00
63514.17,485.00,836.00
63514.17,486.00,832.00
63514.17,488.00,832.00
63514.17,489.00,836.00
63514.17,491.00,832.00
63514.17,492.00,836.00
63514.17,493.00,832.00
63514.17,493.00,832.00
63514.17,493.00,836.00
63514.17,490.00,832.00
63514.17,487.00,832.00
63514.17,485.00,836.00
63514.17,486.00,832.00
63514.19,487.00,832.00
63514.19,489.00,836.00
63514.19,491.00,832.00
63514.19,493.00,832.00
63514.19,493.00,836.00
63514.19,491.00,832.00
63514.19,491.00,832.00
63514.19,492.00,840.00
63514.19,491.00,828.00
63514.19,491.00,832.00
63514.19,490.00,836.00
63514.19,490.00,832.00
63514.19,490.00,832.00
63514.19,487.00,836.00
63514.19,486.00,832.00
63514.19,484.00,832.00
63514.20,483.00,836.00
63514.20,483.00,832.00
63514.20,483.00,832.00
63514.20,484.00,836.00
63514.20,485.00,832.00
63514.20,488.00,832.00
63514.20,489.00,836.00
63514.20,492.00,832.00
63514.20,495.00,832.00
63514.20,499.00,836.00
63514.20,501.00,832.00
63514.20,503.00,836.00
63514.20,505.00,832.00
63514.20,504.00,832.00
63514.20,503.00,836.00
63514.20,502.00,832.00
63514.22,503.00,832.00
63514.22,503.00,836.00
63514.22,505.00,832.00
63514.22,507.00,832.00
63514.22,508.00,836.00
63514.22,510.00,832.00
63514.22,510.00,832.00
63514.22,513.00,836.00
63514.22,516.00,832.00
63514.22,517.00,832.00
63514.22,520.00,836.00
63514.22,524.00,832.00
63514.22,527.00,832.00
63514.22,532.00,836.00
63514.22,534.00,832.00
63514.22,537.00,832.00
63514.23,538.00,836.00
63514.23,540.00,832.00
63514.23,545.00,832.00
63514.23,548.00,836.00
63514.23,552.00,832.00
63514.23,556.00,832.00
63514.23,558.00,836.00
63514.23,559.00,832.00
63514.23,561.00,836.00
63514.23,563.00,832.00
63514.23,567.00,832.00
63514.23,572.00,836.00
63514.23,576.00,832.00
63514.23,582.00,832.00
63514.23,584.00,836.00
63514.23,588.00,832.00
63514.24,592.00,832.00
63514.24,597.00,836.00
63514.24,603.00,832.00
63514.24,609.00,832.00
63514.24,616.00,836.00
63514.24,622.00,832.00
63514.24,628.00,832.00
63514.24,632.00,836.00
63514.24,639.00,832.00
63514.24,644.00,832.00
63514.24,650.00,836.00
63514.24,654.00,832.00
63514.24,657.00,832.00
63514.24,663.00,836.00
63514.24,667.00,832.00
63514.24,671.00,832.00
63514.25,678.00,836.00
63514.25,685.00,832.00
63514.25,691.00,832.00
63514.25,699.00,836.00
63514.25,704.00,832.00
63514.25,708.00,832.00
63514.25,711.00,836.00
63514.25,711.00,832.00
63514.25,714.00,836.00
63514.25,716.00,832.00
63514.25,722.00,832.00
63514.25,727.00,836.00
63514.25,730.00,832.00
63514.25,733.00,832.00
63514.25,735.00,836.00
63514.25,734.00,832.00
63514.27,734.00,832.00
63514.27,734.00,836.00
63514.27,735.00,832.00
63514.27,736.00,832.00
63514.27,736.00,836.00
63514.27,735.00,832.00
63514.27,735.00,832.00
63514.27,732.00,836.00
63514.27,731.00,832.00
63514.27,731.00,832.00
63514.27,729.00,836.00
63514.27,729.00,832.00
63514.27,727.00,832.00
63514.27,725.00,836.00
63514.27,724.00,832.00
63514.27,720.00,832.00
63514.28,719.00,836.00
63514.28,718.00,832.00
63514.28,714.00,832.00
63514.28,711.00,836.00
63514.28,709.00,832.00
63514.28,706.00,832.00
63514.28,703.00,836.00
63514.28,700.00,832.00
63514.28,698.00,836.00
63514.28,697.00,832.00
63514.28,696.00,832.00
63514.28,696.00,836.00
63514.28,696.00,832.00
63514.28,696.00,832.00
63514.28,693.00,836.00
63514.28,691.00,832.00
63514.29,686.00,832.00
63514.29,682.00,836.00
63514.29,678.00,832.00
63514.29,674.00,832.00
63514.29,673.00,836.00
63514.29,672.00,832.00
63514.29,670.00,832.00
63514.29,668.00,836.00
63514.29,664.00,832.00
63514.29,660.00,832.00
63514.29,659.00,836.00
63514.29,653.00,832.00
63514.29,651.00,832.00
63514.29,649.00,836.00
63514.29,645.00,832.00
63514.29,644.00,832.00
63514.31,640.00,836.00
63514.31,636.00,832.00
63514.31,633.00,832.00
63514.31,631.00,836.00
63514.31,628.00,832.00
63514.31,628.00,832.00
63514.31,624.00,836.00
63514.31,621.00,832.00
63514.31,618.00,836.00
63514.31,615.00,832.00
63514.31,614.00,832.00
63514.31,612.00,836.00
63514.31,608.00,832.00
63514.31,608.00,832.00
63514.31,604.00,836.00
63514.31,599.00,832.00
63514.32,596.00,832.00
63514.32,593.00,836.00
63514.32,593.00,832.00
63514.32,594.00,832.00
63514.32,592.00,836.00
63514.32,592.00,832.00
63514.32,591.00,832.00
63514.32,588.00,836.00
63514.32,587.00,832.00
63514.32,585.00,832.00
63514.32,586.00,836.00
63514.32,585.00,832.00
63514.32,582.00,832.00
63514.32,580.00,836.00
63514.32,576.00,832.00
63514.32,571.00,832.00
63514.33,566.00,836.00
63514.33,566.00,832.00
63514.33,565.00,832.00
63514.33,565.00,836.00
63514.33,563.00,832.00
63514.33,563.00,832.00
63514.33,562.00,836.00
63514.33,562.00,832.00
63514.33,560.00,832.00
63514.33,560.00,836.00
63514.33,559.00,832.00
63514.33,558.00,836.00
63514.33,557.00,832.00
63514.33,556.00,832.00
63514.33,555.00,836.00
63514.33,551.00,832.00
63514.35,548.00,832.00
63514.35,544.00,836.00
63514.35,544.00,832.00
63514.35,541.00,844.00
63514.35,539.00,824.00
63514.35,536.00,832.00
63514.35,536.00,832.00
63514.35,535.00,836.00
63514.35,535.00,832.00
63514.35,533.00,832.00
63514.35,536.00,836.00
63514.35,536.00,832.00
63514.35,538.00,832.00
63514.35,538.00,836.00
63514.35,538.00,832.00
63514.35,537.00,832.00
63514.36,536.00,836.00
63514.36,535.00,832.00
63514.36,535.00,832.00
63514.36,537.00,836.00
63514.36,535.00,832.00
63514.36,534.00,832.00
63514.36,531.00,836.00
63514.36,529.00,832.00
63514.36,525.00,836.00
63514.36,525.00,832.00
63514.36,523.00,832.00
63514.36,523.00,836.00
63514.36,522.00,832.00
63514.36,523.00,832.00
63514.36,524.00,836.00
63514.36,523.00,832.00
63514.37,521.00,832.00
63514.37,519.00,836.00
63514.37,520.00,832.00
63514.37,520.00,832.00
63514.37,521.00,836.00
63514.37,519.00,832.00
63514.37,519.00,832.00
63514.37,517.00,836.00
63514.37,517.00,832.00
63514.37,515.00,832.00
63514.37,516.00,836.00
63514.37,515.00,832.00
63514.37,515.00,832.00
63514.37,514.00,836.00
63514.37,514.00,832.00
63514.37,514.00,832.00
63514.39,514.00,836.00
63514.39,513.00,832.00
63514.39,513.00,832.00
63514.39,515.00,836.00
63514.39,517.00,832.00
63514.39,517.00,832.00
63514.39,515.00,836.00
63514.39,515.00,832.00
63514.39,513.00,836.00
63514.39,513.00,832.00
63514.39,511.00,832.00
63514.39,512.00,836.00
63514.39,509.00,832.00
63514.39,508.00,832.00
63514.39,506.00,836.00
63514.39,504.00,832.00
63514.40,504.00,832.00
63514.40,500.00,836.00
63514.40,499.00,832.00
63514.40,500.00,832.00
63514.40,501.00,836.00
63514.40,501.00,832.00
63514.40,502.00,832.00
63514.40,501.00,836.00
63514.40,502.00,832.00
63514.40,499.00,832.00
63514.40,499.00,836.00
63514.40,497.00,832.00
63514.40,496.00,832.00
63514.40,496.00,836.00
63514.40,495.00,832.00
63514.40,495.00,832.00
63514.41,494.00,836.00
63514.41,493.00,832.00
63514.41,489.00,832.00
63514.41,490.00,836.00
63514.41,487.00,832.00
63514.41,488.00,832.00
63514.41,486.00,836.00
63514.41,485.00,832.00
63514.41,485.00,836.00
63514.41,485.00,832.00
63514.41,486.00,832.00
63514.41,485.00,836.00
63514.41,487.00,832.00
63514.41,485.00,832.00
63514.41,487.00,836.00
63514.41,487.00,832.00
63514.43,488.00,832.00
63514.43,487.00,836.00
63514.43,487.00,832.00
63514.43,487.00,832.00
63514.43,489.00,836.00
63514.43,489.00,832.00
63514.43,489.00,832.00
63514.43,490.00,836.00
63514.43,488.00,832.00
63514.43,489.00,832.00
63514.43,488.00,836.00
63514.43,490.00,832.00
63514.43,490.00,832.00
63514.43,492.00,836.00
63514.43,492.00,832.00
63514.43,494.00,832.00
63514.44,492.00,836.00
63514.44,493.00,832.00
63514.44,490.00,832.00
63514.44,487.00,836.00
63514.44,487.00,832.00
63514.44,487.00,832.00
63514.44,489.00,836.00
63514.44,487.00,832.00
63514.44,487.00,832.00
63514.44,485.00,836.00
63514.44,484.00,832.00
63514.44,483.00,836.00
63514.44,483.00,832.00
63514.44,483.00,832.00
63514.44,482.00,836.00
63514.44,483.00,832.00
63514.45,481.00,832.00
63514.45,481.00,836.00
63514.45,480.00,832.00
63514.45,480.00,832.00
63514.45,479.00,836.00
63514.45,481.00,832.00
63514.45,481.00,832.00
63514.45,482.00,836.00
63514.45,482.00,832.00
63514.45,482.00,832.00
63514.45,481.00,836.00
63514.45,480.00,832.00
63514.45,481.00,832.00
63514.45,482.00,836.00
63514.45,485.00,832.00
63514.45,484.00,832.00
63514.47,486.00,836.00
63514.47,484.00,832.00
63514.47,486.00,832.00
63514.47,485.00,836.00
63514.47,483.00,832.00
63514.47,485.00,832.00
63514.47,486.00,836.00
63514.47,488.00,832.00
63514.47,487.00,832.00
63514.47,486.00,836.00
63514.47,483.00,832.00
63514.47,482.00,836.00
63514.47,481.00,832.00
63514.47,483.00,832.00
63514.47,483.00,836.00
63514.47,482.00,832.00
63514.48,483.00,832.00
63514.48,481.00,836.00
63514.48,482.00,832.00
63514.48,479.00,832.00
63514.48,479.00,836.00
63514.48,478.00,832.00
63514.48,480.00,832.00
63514.48,481.00,836.00
63514.48,482.00,832.00
63514.48,481.00,832.00
63514.48,480.00,836.00
63514.48,480.00,832.00
63514.48,478.00,832.00
63514.48,482.00,836.00
63514.48,482.00,832.00
63514.48,485.00,832.00
63514.49,485.00,836.00
63514.49,486.00,832.00
63514.49,484.00,832.00
63514.49,483.00,836.00
63514.49,484.00,832.00
63514.49,482.00,832.00
63514.49,483.00,836.00
63514.49,482.00,832.00
63514.49,483.00,832.00
63514.49,481.00,836.00
63514.49,480.00,832.00
63514.49,477.00,836.00
63514.49,477.00,832.00
63514.49,478.00,832.00
63514.49,479.00,836.00
63514.49,481.00,832.00
63514.51,481.00,832.00
63514.51,483.00,836.00
63514.51,481.00,832.00
63514.51,481.00,832.00
63514.51,479.00,836.00
63514.51,481.00,832.00
63514.51,481.00,832.00
63514.51,482.00,836.00
63514.51,482.00,832.00
63514.51,482.00,832.00
63514.51,482.00,836.00
63514.51,478.00,832.00
63514.51,478.00,832.00
63514.51,476.00,836.00
63514.51,477.00,832.00
63514.51,477.00,832.00
63514.52,478.00,836.00
63514.52,478.00,832.00
63514.52,479.00,832.00
63514.52,480.00,836.00
63514.52,479.00,832.00
63514.52,481.00,832.00
63514.52,480.00,836.00
63514.52,481.00,832.00
63514.52,482.00,836.00
63514.52,482.00,832.00
63514.52,480.00,832.00
63514.52,478.00,836.00
63514.52,478.00,832.00
63514.52,478.00,832.00
63514.52,479.00,836.00
63514.52,479.00,832.00
63514.53,479.00,832.00
63514.53,478.00,836.00
63514.53,478.00,832.00
63514.53,476.00,832.00
63514.53,474.00,836.00
63514.53,476.00,832.00
63514.53,476.00,832.00
63514.53,477.00,836.00
63514.53,479.00,832.00
63514.53,480.00,832.00
63514.53,477.00,848.00
63514.53,475.00,820.00
63514.53,473.00,832.00
63514.53,471.00,836.00
63514.53,470.00,832.00
63514.53,470.00,832.00
63514.55,473.00,836.00
63514.55,473.00,832.00
63514.55,474.00,832.00
63514.55,472.00,836.00
63514.55,471.00,832.00
63514.55,472.00,832.00
63514.55,472.00,836.00
63514.55,471.00,832.00
63514.55,471.00,836.00
63514.55,473.00,832.00
63514.55,473.00,832.00
63514.55,473.00,836.00
63514.55,472.00,832.00
63514.55,474.00,832.00
63514.55,474.00,836.00
63514.55,476.00,832.00
63514.56,478.00,832.00
63514.56,479.00,836.00
63514.56,478.00,832.00
63514.56,475.00,832.00
63514.56,474.00,836.00
63514.56,474.00,832.00
63514.56,476.00,832.00
63514.56,475.00,836.00
63514.56,476.00,832.00
63514.56,476.00,832.00
63514.56,476.00,836.00
63514.56,473.00,832.00
63514.56,474.00,832.00
63514.56,474.00,836.00
63514.56,475.00,832.00
63514.56,477.00,832.00
63514.58,479.00,836.00
63514.58,482.00,832.00
63514.58,480.00,832.00
63514.58,479.00,836.00
63514.58,478.00,832.00
63514.58,476.00,832.00
63514.58,476.00,836.00
63514.58,476.00,832.00
63514.58,476.00,836.00
63514.58,477.00,832.00
63514.58,476.00,832.00
63514.58,473.00,836.00
63514.58,472.00,832.00
63514.58,471.00,832.00
63514.58,472.00,836.00
63514.58,474.00,832.00
63514.59,476.00,832.00
63514.59,479.00,836.00
63514.59,479.00,832.00
63514.59,480.00,832.00
63514.59,478.00,836.00
63514.59,479.00,832.00
63514.59,478.00,832.00
63514.59,480.00,836.00
63514.59,480.00,832.00
63514.59,482.00,832.00
63514.59,483.00,836.00
63514.59,482.00,832.00
63514.59,482.00,832.00
63514.59,479.00,836.00
63514.59,479.00,832.00
63514.59,478.00,832.00
63514.60,477.00,836.00
63514.60,478.00,832.00
63514.60,479.00,832.00
63514.60,478.00,836.00
63514.60,477.00,832.00
63514.60,478.00,832.00
63514.60,477.00,836.00
63514.60,479.00,832.00
63514.60,480.00,832.00
63514.60,482.00,836.00
63514.60,482.00,832.00
63514.60,484.00,836.00
63514.60,481.00,832.00
63514.60,481.00,832.00
63514.60,480.00,836.00
63514.60,480.00,832.00
63514.62,481.00,832.00
63514.62,481.00,836.00
63514.62,482.00,832.00
63514.62,484.00,832.00
63514.62,480.00,836.00
63514.62,477.00,832.00
63514.62,476.00,832.00
63514.62,477.00,836.00
63514.62,479.00,832.00
63514.62,480.00,832.00
63514.62,484.00,836.00
63514.62,486.00,832.00
63514.62,487.00,832.00
63514.62,487.00,836.00
63514.62,486.00,832.00
63514.62,483.00,832.00
63514.63,485.00,836.00
63514.63,484.00,832.00
63514.63,486.00,832.00
63514.63,487.00,836.00
63514.63,486.00,832.00
63514.63,483.00,832.00
63514.63,483.00,836.00
63514.63,483.00,832.00
63514.63,483.00,832.00
63514.63,485.00,836.00
63514.63,484.00,832.00
63514.63,484.00,836.00
63514.63,483.00,832.00
63514.63,483.00,832.00
63514.63,483.00,836.00
63514.63,483.00,832.00
63514.64,483.00,832.00
63514.64,486.00,836.00
63514.64,486.00,832.00
63514.64,488.00,832.00
63514.64,489.00,836.00
63514.64,487.00,832.00
63514.64,486.00,832.00
63514.64,487.00,836.00
63514.64,486.00,832.00
63514.64,487.00,832.00
63514.64,489.00,836.00
63514.64,487.00,832.00
63514.64,487.00,832.00
63514.64,483.00,836.00
63514.64,480.00,832.00
63514.64,478.00,832.00
63514.65,478.00,836.00
63514.65,478.00,832.00
63514.65,482.00,832.00
63514.65,485.00,836.00
63514.65,487.00,832.00
63514.65,488.00,832.00
63514.65,487.00,836.00
63514.65,485.00,832.00
63514.65,488.00,836.00
63514.65,490.00,832.00
63514.65,490.00,832.00
63514.65,491.00,836.00
63514.65,491.00,832.00
63514.65,489.00,832.00
63514.65,488.00,836.00
63514.65,486.00,832.00
63514.67,484.00,832.00
63514.67,485.00,836.00
63514.67,484.00,832.00
63514.67,486.00,832.00
63514.67,489.00,836.00
63514.67,489.00,832.00
63514.67,489.00,832.00
63514.67,493.00,836.00
63514.67,491.00,832.00
63514.67,491.00,832.00
63514.67,492.00,836.00
63514.67,490.00,832.00
63514.67,492.00,832.00
63514.67,493.00,836.00
63514.67,490.00,832.00
63514.67,489.00,832.00
63514.68,488.00,836.00
63514.68,486.00,832.00
63514.68,488.00,832.00
63514.68,490.00,836.00
63514.68,488.00,832.00
63514.68,488.00,832.00
63514.68,486.00,836.00
63514.68,483.00,832.00
63514.68,484.00,832.00
63514.68,486.00,836.00
63514.68,486.00,832.00
63514.68,488.00,836.00
63514.68,491.00,832.00
63514.68,491.00,832.00
63514.68,491.00,836.00
63514.68,488.00,832.00
63514.69,485.00,832.00
63514.69,487.00,836.00
63514.69,487.00,832.00
63514.69,488.00,832.00
63514.69,489.00,836.00
63514.69,489.00,832.00
63514.69,488.00,844.00
63514.69,486.00,824.00
63514.69,485.00,832.00
63514.69,485.00,832.00
63514.69,487.00,836.00
63514.69,488.00,832.00
63514.69,488.00,832.00
63514.69,488.00,836.00
63514.69,487.00,832.00
63514.69,487.00,832.00
63514.71,486.00,836.00
63514.71,485.00,832.00
63514.71,485.00,832.00
63514.71,485.00,836.00
63514.71,486.00,832.00
63514.71,488.00,832.00
63514.71,488.00,836.00
63514.71,486.00,832.00
63514.71,485.00,832.00
63514.71,485.00,836.00
63514.71,485.00,832.00
63514.71,486.00,836.00
63514.71,486.00,832.00
63514.71,486.00,832.00
63514.71,485.00,836.00
63514.71,485.00,832.00
63514.72,485.00,832.00
63514.72,486.00,836.00
63514.72,486.00,832.00
63514.72,488.00,832.00
63514.72,490.00,836.00
63514.72,491.00,832.00
63514.72,492.00,832.00
63514.72,491.00,836.00
63514.72,491.00,832.00
63514.72,491.00,832.00
63514.72,492.00,836.00
63514.72,491.00,832.00
63514.72,490.00,832.00
63514.72,488.00,836.00
63514.72,485.00,832.00
63514.72,482.00,832.00
63514.73,480.00,836.00
63514.73,479.00,832.00
63514.73,479.00,832.00
63514.73,480.00,836.00
63514.73,482.00,832.00
63514.73,484.00,832.00
63514.73,485.00,836.00
63514.73,488.00,832.00
63514.73,489.00,832.00
63514.73,491.00,836.00
63514.73,489.00,832.00
63514.73,489.00,836.00
63514.73,490.00,832.00
63514.73,490.00,832.00
63514.73,490.00,836.00
63514.73,490.00,832.00
63514.75,490.00,832.00
63514.75,491.00,836.00
63514.75,490.00,832.00
63514.75,488.00,832.00
63514.75,488.00,836.00
63514.75,490.00,832.00
63514.75,489.00,832.00
63514.75,491.00,836.00
63514.75,492.00,832.00
63514.75,493.00,832.00
63514.75,494.00,836.00
63514.75,495.00,832.00
63514.75,496.00,832.00
63514.75,498.00,836.00
63514.75,497.00,832.00
63514.75,496.00,832.00
63514.76,495.00,836.00
63514.76,495.00,832.00
63514.76,495.00,832.00
63514.76,495.00,836.00
63514.76,494.00,832.00
63514.76,494.00,832.00
63514.76,494.00,836.00
63514.76,492.00,832.00
63514.76,492.00,836.00
63514.76,490.00,832.00
63514.76,491.00,832.00
63514.76,493.00,836.00
63514.76,493.00,832.00
63514.76,494.00,832.00
63514.76,495.00,836.00
63514.76,494.00,832.00
63514.77,494.00,832.00
63514.77,493.00,836.00
63514.77,494.00,832.00
63514.77,496.00,832.00
63514.77,496.00,836.00
63514.77,497.00,832.00
63514.77,497.00,832.00
63514.77,496.00,836.00
63514.77,496.00,832.00
63514.77,496.00,832.00
63514.77,496.00,836.00
63514.77,497.00,832.00
63514.77,498.00,832.00
63514.77,497.00,836.00
63514.77,496.00,832.00
63514.77,494.00,832.00
63514.78,493.00,836.00
63514.78,493.00,832.00
63514.78,495.00,832.00
63514.78,498.00,836.00
63514.78,498.00,832.00
63514.78,498.00,832.00
63514.78,499.00,836.00
63514.78,502.00,832.00
63514.78,501.00,836.00
63514.78,500.00,832.00
63514.78,499.00,832.00
63514.78,498.00,836.00
63514.78,498.00,832.00
63514.78,497.00,832.00
63514.78,497.00,836.00
63514.78,496.00,832.00
63514.80,494.00,832.00
63514.80,493.00,836.00
63514.80,493.00,832.00
63514.80,496.00,832.00
63514.80,498.00,836.00
63514.80,498.00,832.00
63514.80,500.00,832.00
63514.80,501.00,836.00
63514.80,502.00,832.00
63514.80,502.00,832.00
63514.80,502.00,836.00
63514.80,502.00,832.00
63514.80,502.00,832.00
63514.80,501.00,836.00
63514.80,501.00,832.00
63514.80,502.00,832.00
63514.81,501.00,836.00
63514.81,499.00,832.00
63514.81,499.00,832.00
63514.81,499.00,836.00
63514.81,498.00,832.00
63514.81,498.00,832.00
63514.81,495.00,836.00
63514.81,495.00,832.00
63514.81,494.00,836.00
63514.81,493.00,832.00
63514.81,493.00,832.00
63514.81,494.00,836.00
63514.81,495.00,832.00
63514.81,496.00,832.00
63514.81,496.00,836.00
63514.81,496.00,832.00
63514.83,495.00,832.00
63514.83,494.00,836.00
63514.83,494.00,832.00
63514.83,496.00,832.00
63514.83,497.00,836.00
63514.83,497.00,832.00
63514.83,496.00,832.00
63514.83,496.00,836.00
63514.83,494.00,832.00
63514.83,494.00,832.00
63514.83,494.00,836.00
63514.83,494.00,832.00
63514.83,495.00,832.00
63514.83,495.00,836.00
63514.83,496.00,832.00
63514.83,496.00,832.00
63514.84,498.00,836.00
63514.84,498.00,832.00
63514.84,498.00,832.00
63514.84,497.00,836.00
63514.84,498.00,832.00
63514.84,497.00,832.00
63514.84,496.00,836.00
63514.84,498.00,832.00
63514.84,499.00,836.00
63514.84,499.00,832.00
63514.84,498.00,832.00
63514.84,497.00,836.00
63514.84,496.00,832.00
63514.84,496.00,832.00
63514.84,496.00,836.00
63514.84,497.00,832.00
63514.85,500.00,832.00
63514.85,500.00,836.00
63514.85,498.00,832.00
63514.85,499.00,832.00
63514.85,502.00,836.00
63514.85,503.00,832.00
63514.85,503.00,832.00
63514.85,501.00,836.00
63514.85,498.00,832.00
63514.85,497.00,832.00
63514.85,498.00,836.00
63514.85,500.00,832.00
63514.85,503.00,832.00
63514.85,506.00,836.00
63514.85,505.00,832.00
63514.85,504.00,832.00
63514.87,505.00,836.00
63514.87,505.00,832.00
63514.87,502.00,832.00
63514.87,503.00,836.00
63514.87,501.00,832.00
63514.87,500.00,832.00
63514.87,503.00,836.00
63514.87,504.00,832.00
63514.87,502.00,832.00
63514.87,504.00,836.00
63514.87,501.00,832.00
63514.87,501.00,836.00
63514.87,504.00,832.00
63514.87,503.00,832.00
63514.87,504.00,836.00
63514.87,505.00,832.00
63514.88,503.00,832.00
63514.88,504.00,836.00
63514.88,507.00,832.00
63514.88,505.00,832.00
63514.88,506.00,836.00
63514.88,508.00,832.00
63514.88,507.00,832.00
63514.88,505.00,836.00
63514.88,505.00,832.00
63514.88,504.00,832.00
63514.88,504.00,836.00
63514.88,508.00,832.00
63514.88,509.00,832.00
63514.88,511.00,848.00
63514.88,512.00,820.00
63514.88,510.00,832.00
63514.90,509.00,836.00
63514.90,511.00,832.00
63514.90,510.00,832.00
63514.90,508.00,836.00
63514.90,509.00,832.00
63514.90,508.00,832.00
63514.90,506.00,836.00
63514.90,507.00,832.00
63514.90,505.00,832.00
63514.90,503.00,836.00
63514.90,506.00,832.00
63514.90,507.00,836.00
63514.90,506.00,832.00
63514.90,507.00,832.00
63514.90,508.00,836.00
63514.90,506.00,832.00
63514.91,508.00,832.00
63514.91,509.00,836.00
63514.91,511.00,832.00
63514.91,512.00,832.00
63514.91,512.00,836.00
63514.91,511.00,832.00
63514.91,513.00,832.00
63514.91,511.00,836.00
63514.91,511.00,832.00
63514.91,511.00,832.00
63514.91,512.00,836.00
63514.91,508.00,832.00
63514.91,504.00,832.00
63514.91,504.00,836.00
63514.91,504.00,832.00
63514.91,503.00,832.00
63514.92,503.00,836.00
63514.92,502.00,832.00
63514.92,503.00,832.00
63514.92,506.00,836.00
63514.92,506.00,832.00
63514.92,507.00,832.00
63514.92,509.00,836.00
63514.92,509.00,832.00
63514.92,508.00,836.00
63514.92,508.00,832.00
63514.92,506.00,832.00
63514.92,505.00,836.00
63514.92,505.00,832.00
63514.92,505.00,832.00
63514.92,505.00,836.00
63514.92,505.00,832.00
63514.93,501.00,832.00
63514.93,500.00,836.00
63514.93,500.00,832.00
63514.93,503.00,832.00
63514.93,501.00,836.00
63514.93,502.00,832.00
63514.93,503.00,832.00
63514.93,505.00,836.00
63514.93,504.00,832.00
63514.93,504.00,832.00
63514.93,502.00,836.00
63514.93,502.00,832.00
63514.93,503.00,832.00
63514.93,503.00,836.00
63514.93,505.00,832.00
63514.93,508.00,832.00
63514.95,505.00,836.00
63514.95,505.00,832.00
63514.95,506.00,832.00
63514.95,506.00,836.00
63514.95,507.00,832.00
63514.95,509.00,832.00
63514.95,508.00,836.00
63514.95,505.00,832.00
63514.95,505.00,832.00
63514.95,504.00,836.00
63514.95,506.00,832.00
63514.95,508.00,836.00
63514.95,512.00,832.00
63514.95,511.00,832.00
63514.95,514.00,836.00
63514.95,515.00,832.00
63514.96,516.00,832.00
63514.96,514.00,836.00
63514.96,515.00,832.00
63514.96,513.00,832.00
63514.96,516.00,836.00
63514.96,516.00,832.00
63514.96,514.00,832.00
63514.96,513.00,836.00
63514.96,513.00,832.00
63514.96,511.00,832.00
63514.96,512.00,836.00
63514.96,511.00,832.00
63514.96,511.00,832.00
63514.96,511.00,836.00
63514.96,514.00,832.00
63514.96,515.00,832.00
63514.97,517.00,836.00
63514.97,516.00,832.00
63514.97,515.00,832.00
63514.97,514.00,836.00
63514.97,513.00,832.00
63514.97,511.00,832.00
63514.97,508.00,836.00
63514.97,508.00,832.00
63514.97,508.00,836.00
63514.97,509.00,832.00
63514.97,509.00,832.00
63514.97,508.00,836.00
63514.97,505.00,832.00
63514.97,506.00,832.00
63514.97,504.00,836.00
63514.97,506.00,832.00
63514.99,508.00,832.00
63514.99,511.00,836.00
63514.99,508.00,832.00
63514.99,509.00,832.00
63514.99,506.00,836.00
63514.99,508.00,832.00
63514.99,509.00,832.00
63514.99,512.00,836.00
63514.99,513.00,832.00
63514.99,513.00,832.00
63514.99,514.00,836.00
63514.99,514.00,832.00
63514.99,513.00,832.00
63514.99,513.00,836.00
63514.99,511.00,832.00
63514.99,511.00,832.00
63515.00,512.00,836.00
63515.00,512.00,832.00
63515.00,510.00,832.00
63515.00,510.00,836.00
63515.00,510.00,832.00
63515.00,511.00,832.00
63515.00,514.00,836.00
63515.00,515.00,832.00
63515.00,518.00,836.00
63515.00,519.00,832.00
63515.00,520.00,832.00
63515.00,517.00,836.00
63515.00,518.00,832.00
63515.00,514.00,832.00
63515.00,514.00,836.00
63515.00,513.00,832.00
63515.01,515.00,832.00
63515.01,513.00,836.00
63515.01,513.00,832.00
63515.01,512.00,832.00
63515.01,510.00,836.00
63515.01,510.00,832.00
63515.01,513.00,832.00
63515.01,511.00,836.00
63515.01,512.00,832.00
63515.01,514.00,832.00
63515.01,512.00,836.00
63515.01,512.00,832.00
63515.01,513.00,832.00
63515.01,512.00,836.00
63515.01,510.00,832.00
63515.01,509.00,832.00
63515.03,507.00,836.00
63515.03,507.00,832.00
63515.03,511.00,832.00
63515.03,512.00,836.00
63515.03,512.00,832.00
63515.03,514.00,832.00
63515.03,515.00,836.00
63515.03,515.00,832.00
63515.03,514.00,832.00
63515.03,515.00,836.00
63515.03,513.00,832.00
63515.03,513.00,836.00
63515.03,512.00,832.00
63515.03,510.00,832.00
63515.03,510.00,836.00
63515.03,512.00,832.00
63515.04,511.00,832.00
63515.04,514.00,836.00
63515.04,516.00,832.00
63515.04,516.00,832.00
63515.04,517.00,836.00
63515.04,517.00,832.00
63515.04,516.00,832.00
63515.04,516.00,836.00
63515.04,516.00,832.00
63515.04,516.00,836.00
63515.04,517.00,832.00
63515.04,518.00,832.00
63515.04,516.00,832.00
63515.04,514.00,836.00
63515.04,511.00,832.00
63515.04,510.00,832.00
63515.05,510.00,836.00
63515.05,513.00,832.00
63515.05,514.00,832.00
63515.05,515.00,836.00
63515.05,517.00,832.00
63515.05,517.00,832.00
63515.05,516.00,836.00
63515.05,518.00,832.00
63515.05,520.00,836.00
63515.05,517.00,832.00
63515.05,517.00,832.00
63515.05,516.00,836.00
63515.05,517.00,832.00
63515.05,517.00,832.00
63515.05,519.00,836.00
63515.05,517.00,832.00
63515.07,521.00,832.00
63515.07,521.00,836.00
63515.07,522.00,832.00
63515.07,524.00,832.00
63515.07,526.00,836.00
63515.07,523.00,832.00
63515.07,523.00,832.00
63515.07,524.00,836.00
63515.07,525.00,832.00
63515.07,524.00,832.00
63515.07,524.00,836.00
63515.07,522.00,832.00
63515.07,522.00,832.00
63515.07,524.00,836.00
63515.07,523.00,832.00
63515.07,523.00,832.00
63515.08,524.00,836.00
63515.08,522.00,832.00
63515.08,520.00,832.00
63515.08,521.00,836.00
63515.08,521.00,832.00
63515.08,519.00,832.00
63515.08,521.00,836.00
63515.08,521.00,832.00
63515.08,518.00,836.00
63515.08,521.00,832.00
63515.08,521.00,832.00
63515.08,521.00,836.00
63515.08,523.00,832.00
63515.08,522.00,832.00
63515.08,520.00,836.00
63515.08,521.00,832.00
63515.10,520.00,832.00
63515.10,519.00,836.00
63515.10,519.00,832.00
63515.10,520.00,832.00
63515.10,522.00,836.00
63515.10,521.00,832.00
63515.10,520.00,832.00
63515.10,517.00,836.00
63515.10,515.00,832.00
63515.10,517.00,832.00
63515.10,518.00,836.00
63515.10,518.00,832.00
63515.10,522.00,832.00
63515.10,523.00,836.00
63515.10,524.00,832.00
63515.10,527.00,832.00
63515.11,527.00,836.00
63515.11,525.00,832.00
63515.11,525.00,832.00
63515.11,525.00,836.00
63515.11,526.00,832.00
63515.11,526.00,832.00
63515.11,525.00,836.00
63515.11,522.00,832.00
63515.11,524.00,832.00
63515.11,525.00,836.00
63515.11,524.00,832.00
63515.11,525.00,836.00
63515.11,525.00,832.00
63515.11,524.00,832.00
63515.11,522.00,836.00
63515.11,522.00,832.00
63515.12,521.00,832.00
63515.12,521.00,836.00
63515.12,523.00,832.00
63515.12,522.00,832.00
63515.12,522.00,836.00
63515.12,523.00,832.00
63515.12,522.00,832.00
63515.12,523.00,836.00
63515.12,525.00,832.00
63515.12,525.00,832.00
63515.12,524.00,836.00
63515.12,525.00,832.00
63515.12,524.00,832.00
63515.12,523.00,836.00
63515.12,520.00,832.00
63515.12,521.00,832.00
63515.14,519.00,836.00
63515.14,518.00,832.00
63515.14,516.00,832.00
63515.14,515.00,836.00
63515.14,514.00,832.00
63515.14,518.00,832.00
63515.14,521.00,836.00
63515.14,523.00,832.00
63515.14,526.00,832.00
63515.14,527.00,836.00
63515.14,528.00,832.00
63515.14,529.00,836.00
63515.14,527.00,832.00
63515.14,524.00,832.00
63515.14,524.00,836.00
63515.14,524.00,832.00
63515.15,523.00,832.00
63515.15,521.00,836.00
63515.15,520.00,832.00
63515.15,517.00,832.00
63515.15,518.00,836.00
63515.15,522.00,832.00
63515.15,524.00,832.00
63515.15,526.00,836.00
63515.15,528.00,832.00
63515.15,527.00,832.00
63515.15,527.00,836.00
63515.15,526.00,832.00
63515.15,525.00,832.00
63515.15,525.00,836.00
63515.15,527.00,832.00
63515.15,526.00,832.00
63515.16,523.00,836.00
63515.16,524.00,832.00
63515.16,522.00,832.00
63515.16,522.00,836.00
63515.16,522.00,832.00
63515.16,524.00,832.00
63515.16,523.00,836.00
63515.16,524.00,832.00
63515.16,524.00,832.00
63515.16,522.00,836.00
63515.16,521.00,832.00
63515.16,523.00,836.00
63515.16,522.00,832.00
63515.16,521.00,832.00
63515.16,523.00,836.00
63515.16,524.00,832.00
63515.17,526.00,832.00
63515.17,528.00,836.00
63515.17,529.00,832.00
63515.17,529.00,832.00
63515.17,532.00,836.00
63515.17,531.00,832.00
63515.17,532.00,832.00
63515.17,533.00,836.00
63515.17,533.00,832.00
63515.17,530.00,832.00
63515.17,529.00,836.00
63515.17,528.00,832.00
63515.17,528.00,832.00
63515.17,526.00,836.00
63515.17,526.00,832.00
63515.17,525.00,832.00
63515.19,524.00,836.00
63515.19,529.00,832.00
63515.19,531.00,832.00
63515.19,532.00,836.00
63515.19,534.00,832.00
63515.19,533.00,832.00
63515.19,532.00,836.00
63515.19,533.00,832.00
63515.19,533.00,832.00
63515.19,533.00,836.00
63515.19,534.00,832.00
63515.19,533.00,836.00
63515.19,530.00,832.00
63515.19,529.00,832.00
63515.19,527.00,836.00
63515.19,528.00,832.00
63515.20,531.00,832.00
63515.20,533.00,836.00
63515.20,532.00,832.00
63515.20,533.00,832.00
63515.20,532.00,836.00
63515.20,532.00,832.00
63515.20,531.00,832.00
63515.20,535.00,836.00
63515.20,536.00,832.00
63515.20,538.00,832.00
63515.20,537.00,836.00
63515.20,535.00,832.00
63515.20,533.00,832.00
63515.20,534.00,836.00
63515.20,533.00,832.00
63515.20,533.00,832.00
63515.21,535.00,836.00
63515.21,536.00,832.00
63515.21,536.00,832.00
63515.21,537.00,836.00
63515.21,534.00,832.00
63515.21,531.00,832.00
63515.21,531.00,836.00
63515.21,532.00,832.00
63515.21,531.00,832.00
63515.21,533.00,836.00
63515.21,532.00,832.00
63515.21,529.00,836.00
63515.21,530.00,832.00
63515.21,530.00,832.00
63515.21,531.00,836.00
63515.21,533.00,832.00
63515.23,535.00,832.00
63515.23,535.00,836.00
63515.23,535.00,832.00
63515.23,534.00,832.00
63515.23,533.00,836.00
63515.23,530.00,832.00
63515.23,529.00,832.00
63515.23,526.00,836.00
63515.23,524.00,832.00
63515.23,527.00,832.00
63515.23,529.00,836.00
63515.23,529.00,832.00
63515.23,531.00,832.00
63515.23,530.00,836.00
63515.23,530.00,832.00
63515.23,532.00,832.00
63515.24,535.00,848.00
63515.24,536.00,820.00
63515.24,537.00,832.00
63515.24,536.00,836.00
63515.24,537.00,832.00
63515.24,535.00,832.00
63515.24,532.00,836.00
63515.24,529.00,832.00
63515.24,528.00,836.00
63515.24,529.00,832.00
63515.24,532.00,832.00
63515.24,533.00,836.00
63515.24,535.00,832.00
63515.24,536.00,832.00
63515.24,537.00,836.00
63515.24,538.00,832.00
63515.26,535.00,832.00
63515.26,533.00,836.00
63515.26,533.00,832.00
63515.26,534.00,832.00
63515.26,535.00,836.00
63515.26,533.00,832.00
63515.26,529.00,832.00
63515.26,528.00,836.00
63515.26,530.00,832.00
63515.26,532.00,832.00
63515.26,533.00,836.00
63515.26,535.00,832.00
63515.26,536.00,832.00
63515.26,536.00,836.00
63515.26,532.00,832.00
63515.26,529.00,832.00
63515.27,528.00,836.00
63515.27,527.00,832.00
63515.27,529.00,832.00
63515.27,530.00,836.00
63515.27,528.00,832.00
63515.27,527.00,832.00
63515.27,525.00,836.00
63515.27,527.00,832.00
63515.27,530.00,832.00
63515.27,532.00,836.00
63515.27,536.00,832.00
63515.27,538.00,836.00
63515.27,537.00,832.00
63515.27,536.00,832.00
63515.27,532.00,836.00
63515.27,530.00,832.00
63515.28,532.00,832.00
63515.28,531.00,836.00
63515.28,530.00,832.00
63515.28,528.00,832.00
63515.28,526.00,836.00
63515.28,526.00,832.00
63515.28,525.00,832.00
63515.28,526.00,836.00
63515.28,529.00,832.00
63515.28,532.00,832.00
63515.28,535.00,836.00
63515.28,537.00,832.00
63515.28,535.00,832.00
63515.28,534.00,836.00
63515.28,532.00,832.00
63515.28,531.00,832.00
63515.29,533.00,836.00
63515.29,531.00,832.00
63515.29,530.00,832.00
63515.29,531.00,836.00
63515.29,532.00,832.00
63515.29,535.00,832.00
63515.29,536.00,836.00
63515.29,536.00,832.00
63515.29,537.00,836.00
63515.29,537.00,832.00
63515.29,534.00,832.00
63515.29,535.00,836.00
63515.29,533.00,832.00
63515.29,535.00,832.00
63515.29,535.00,836.00
63515.29,533.00,832.00
63515.30,532.00,832.00
63515.30,534.00,836.00
63515.30,536.00,832.00
63515.30,537.00,832.00
63515.30,539.00,836.00
63515.30,539.00,832.00
63515.30,540.00,832.00
63515.30,538.00,836.00
63515.30,536.00,832.00
63515.30,536.00,832.00
63515.30,533.00,836.00
63515.30,529.00,832.00
63515.30,529.00,832.00
63515.30,527.00,836.00
63515.30,526.00,832.00
63515.30,524.00,832.00
63515.32,523.00,836.00
63515.32,526.00,832.00
63515.32,528.00,832.00
63515.32,531.00,836.00
63515.32,534.00,832.00
63515.32,538.00,832.00
63515.32,539.00,836.00
63515.32,537.00,832.00
63515.32,533.00,832.00
63515.32,529.00,836.00
63515.32,527.00,832.00
63515.32,524.00,836.00
63515.32,525.00,832.00
63515.32,527.00,832.00
63515.32,529.00,836.00
63515.32,532.00,832.00
63515.33,533.00,832.00
63515.33,535.00,836.00
63515.33,537.00,832.00
63515.33,537.00,832.00
63515.33,535.00,836.00
63515.33,532.00,832.00
63515.33,530.00,832.00
63515.33,528.00,836.00
63515.33,527.00,832.00
63515.33,527.00,832.00
63515.33,530.00,836.00
63515.33,533.00,832.00
63515.33,537.00,832.00
63515.33,539.00,836.00
63515.33,542.00,832.00
63515.33,540.00,832.00
63515.35,536.00,836.00
63515.35,532.00,832.00
63515.35,528.00,832.00
63515.35,525.00,836.00
63515.35,522.00,832.00
63515.35,522.00,832.00
63515.35,524.00,836.00
63515.35,527.00,832.00
63515.35,530.00,832.00
63515.35,531.00,836.00
63515.35,532.00,832.00
63515.35,534.00,836.00
63515.35,533.00,832.00
63515.35,532.00,832.00
63515.35,530.00,836.00
63515.35,528.00,832.00
63515.36,527.00,832.00
63515.36,527.00,836.00
63515.36,529.00,832.00
63515.36,533.00,832.00
63515.36,534.00,836.00
63515.36,534.00,832.00
63515.36,535.00,832.00
63515.36,535.00,836.00
63515.36,533.00,832.00
63515.36,531.00,832.00
63515.36,529.00,836.00
63515.36,527.00,832.00
63515.36,526.00,832.00
63515.36,529.00,836.00
63515.36,531.00,832.00
63515.36,534.00,832.00
63515.37,536.00,836.00
63515.37,536.00,832.00
63515.37,536.00,832.00
63515.37,535.00,836.00
63515.37,535.00,832.00
63515.37,535.00,832.00
63515.37,536.00,836.00
63515.37,534.00,832.00
63515.37,533.00,836.00
63515.37,532.00,832.00
63515.37,531.00,832.00
63515.37,529.00,836.00
63515.37,531.00,832.00
63515.37,528.00,832.00
63515.37,528.00,836.00
63515.37,528.00,832.00
63515.39,527.00,832.00
63515.39,527.00,836.00
63515.39,527.00,832.00
63515.39,526.00,832.00
63515.39,528.00,836.00
63515.39,529.00,832.00
63515.39,529.00,832.00
63515.39,531.00,836.00
63515.39,532.00,832.00
63515.39,531.00,832.00
63515.39,530.00,836.00
63515.39,528.00,832.00
63515.39,528.00,836.00
63515.39,528.00,832.00
63515.39,530.00,832.00
63515.39,528.00,832.00
63515.40,527.00,836.00
63515.40,526.00,832.00
63515.40,524.00,832.00
63515.40,524.00,836.00
63515.40,526.00,832.00
63515.40,527.00,832.00
63515.40,529.00,836.00
63515.40,530.00,832.00
63515.40,530.00,836.00
63515.40,530.00,832.00
63515.40,530.00,832.00
63515.40,529.00,836.00
63515.40,529.00,832.00
63515.40,529.00,832.00
63515.40,527.00,836.00
63515.40,526.00,832.00
63515.42,527.00,832.00
63515.42,527.00,836.00
63515.42,526.00,832.00
63515.42,525.00,832.00
63515.42,525.00,836.00
63515.42,526.00,832.00
63515.42,528.00,832.00
63515.42,530.00,836.00
63515.42,529.00,832.00
63515.42,530.00,832.00
63515.42,529.00,836.00
63515.42,530.00,832.00
63515.42,529.00,832.00
63515.42,529.00,836.00
63515.42,528.00,832.00
63515.42,530.00,832.00
63515.43,532.00,836.00
63515.43,533.00,832.00
63515.43,535.00,832.00
63515.43,535.00,836.00
63515.43,533.00,832.00
63515.43,533.00,832.00
63515.43,531.00,836.00
63515.43,530.00,832.00
63515.43,530.00,832.00
63515.43,531.00,836.00
63515.43,530.00,832.00
63515.43,531.00,836.00
63515.43,530.00,832.00
63515.43,532.00,832.00
63515.43,533.00,836.00
63515.43,534.00,832.00
63515.44,536.00,832.00
63515.44,535.00,836.00
63515.44,534.00,832.00
63515.44,533.00,832.00
63515.44,530.00,836.00
63515.44,532.00,832.00
63515.44,530.00,832.00
63515.44,529.00,836.00
63515.44,529.00,832.00
63515.44,530.00,832.00
63515.44,531.00,836.00
63515.44,532.00,832.00
63515.44,532.00,832.00
63515.44,533.00,836.00
63515.44,530.00,832.00
63515.44,529.00,832.00
63515.46,528.00,836.00
63515.46,529.00,832.00
63515.46,528.00,832.00
63515.46,530.00,836.00
63515.46,529.00,832.00
63515.46,531.00,832.00
63515.46,535.00,836.00
63515.46,538.00,832.00
63515.46,542.00,832.00
63515.46,543.00,836.00
63515.46,543.00,832.00
63515.46,542.00,836.00
63515.46,540.00,832.00
63515.46,537.00,832.00
63515.46,536.00,836.00
63515.46,534.00,832.00
63515.47,532.00,832.00
63515.47,533.00,836.00
63515.47,533.00,832.00
63515.47,534.00,832.00
63515.47,537.00,836.00
63515.47,537.00,832.00
63515.47,538.00,832.00
63515.47,538.00,836.00
63515.47,537.00,832.00
63515.47,537.00,832.00
63515.47,536.00,836.00
63515.47,534.00,832.00
63515.47,533.00,832.00
63515.47,530.00,836.00
63515.47,530.00,832.00
63515.47,533.00,832.00
63515.48,534.00,836.00
63515.48,534.00,832.00
63515.48,534.00,832.00
63515.48,530.00,836.00
63515.48,527.00,832.00
63515.48,524.00,832.00
63515.48,522.00,836.00
63515.48,521.00,832.00
63515.48,521.00,836.00
63515.48,522.00,832.00
63515.48,526.00,832.00
63515.48,527.00,836.00
63515.48,531.00,832.00
63515.48,532.00,832.00
63515.48,532.00,836.00
63515.48,532.00,832.00
63515.49,531.00,832.00
63515.49,530.00,836.00
63515.49,532.00,832.00
63515.49,531.00,832.00
63515.49,532.00,836.00
63515.49,530.00,832.00
63515.49,530.00,832.00
63515.49,532.00,836.00
63515.49,535.00,832.00
63515.49,537.00,832.00
63515.49,540.00,836.00
63515.49,540.00,832.00
63515.49,539.00,832.00
63515.49,538.00,836.00
63515.49,536.00,832.00
63515.49,533.00,832.00
63515.51,531.00,836.00
63515.51,528.00,832.00
63515.51,531.00,832.00
63515.51,533.00,836.00
63515.51,535.00,832.00
63515.51,538.00,832.00
63515.51,538.00,836.00
63515.51,537.00,832.00
63515.51,536.00,832.00
63515.51,535.00,836.00
63515.51,533.00,832.00
63515.51,532.00,836.00
63515.51,530.00,832.00
63515.51,528.00,832.00
63515.51,528.00,836.00
63515.51,529.00,832.00
63515.52,532.00,832.00
63515.52,535.00,836.00
63515.52,536.00,832.00
63515.52,538.00,832.00
63515.52,539.00,836.00
63515.52,540.00,832.00
63515.52,539.00,832.00
63515.52,537.00,836.00
63515.52,533.00,832.00
63515.52,533.00,832.00
63515.52,532.00,836.00
63515.52,533.00,832.00
63515.52,534.00,832.00
63515.52,536.00,836.00
63515.52,535.00,832.00
63515.52,533.00,832.00
63515.53,530.00,836.00
63515.53,528.00,832.00
63515.53,526.00,832.00
63515.53,528.00,836.00
63515.53,528.00,832.00
63515.53,529.00,832.00
63515.53,529.00,836.00
63515.53,532.00,832.00
63515.53,535.00,836.00
63515.53,539.00,832.00
63515.53,541.00,832.00
63515.53,542.00,836.00
63515.53,542.00,832.00
63515.53,541.00,832.00
63515.53,539.00,836.00
63515.53,538.00,832.00
63515.55,535.00,832.00
63515.55,534.00,836.00
63515.55,531.00,832.00
63515.55,532.00,832.00
63515.55,534.00,836.00
63515.55,536.00,832.00
63515.55,537.00,832.00
63515.55,536.00,836.00
63515.55,535.00,832.00
63515.55,534.00,832.00
63515.55,535.00,836.00
63515.55,535.00,832.00
63515.55,534.00,832.00
63515.55,534.00,836.00
63515.55,535.00,832.00
63515.55,535.00,832.00
63515.56,536.00,836.00
63515.56,538.00,832.00
63515.56,538.00,832.00
63515.56,536.00,836.00
63515.56,536.00,832.00
63515.56,535.00,832.00
63515.56,533.00,836.00
63515.56,530.00,832.00
63515.56,525.00,832.00
63515.56,524.00,836.00
63515.56,524.00,832.00
63515.56,525.00,836.00
63515.56,528.00,832.00
63515.56,533.00,832.00
63515.56,535.00,836.00
63515.56,536.00,832.00
63515.58,537.00,832.00
63515.58,536.00,836.00
63515.58,535.00,832.00
63515.58,533.00,832.00
63515.58,531.00,836.00
63515.58,530.00,832.00
63515.58,532.00,832.00
63515.58,533.00,836.00
63515.58,535.00,832.00
63515.58,537.00,832.00
63515.58,539.00,836.00
63515.58,541.00,832.00
63515.58,540.00,832.00
63515.58,538.00,836.00
63515.58,538.00,832.00
63515.58,535.00,832.00
63515.59,533.00,836.00
63515.59,532.00,832.00
63515.59,534.00,832.00
63515.59,533.00,840.00
63515.59,536.00,828.00
63515.59,539.00,832.00
63515.59,541.00,836.00
63515.59,542.00,832.00
63515.59,543.00,832.00
63515.59,540.00,836.00
63515.59,539.00,832.00
63515.59,535.00,836.00
63515.59,532.00,832.00
63515.59,530.00,832.00
63515.59,530.00,836.00
63515.59,530.00,832.00
63515.60,532.00,832.00
63515.60,534.00,836.00
63515.60,534.00,832.00
63515.60,535.00,832.00
63515.60,534.00,836.00
63515.60,533.00,832.00
63515.60,535.00,832.00
63515.60,534.00,836.00
63515.60,534.00,832.00
63515.60,531.00,832.00
63515.60,530.00,836.00
63515.60,530.00,832.00
63515.60,531.00,832.00
63515.60,534.00,836.00
63515.60,538.00,832.00
63515.60,540.00,832.00
63515.62,540.00,836.00
63515.62,539.00,832.00
63515.62,536.00,832.00
63515.62,534.00,836.00
63515.62,530.00,832.00
63515.62,528.00,832.00
63515.62,528.00,836.00
63515.62,529.00,832.00
63515.62,531.00,832.00
63515.62,535.00,836.00
63515.62,536.00,832.00
63515.62,538.00,836.00
63515.62,538.00,832.00
63515.62,537.00,832.00
63515.62,537.00,836.00
63515.62,536.00,832.00