Matlab Timestamp,Data 1,Data 2
63540.99,534,736
63540.99,533,836
63540.99,532,832
63540.99,531,832
63540.99,528,836
63540.99,526,832
63540.99,524,832
63540.99,524,836
63540.99,524,832
63540.99,524,836
63540.99,527,832
63540.99,528,832
63540.99,528,836
63540.99,531,832
63541.02,531,832
63541.02,532,836
63541.02,531,832
63541.02,529,832
63541.02,526,836
63541.02,521,832
63541.02,519,832
63541.02,515,836
63541.02,513,832
63541.02,512,832
63541.02,511,836
63541.02,514,832
63541.02,518,832
63541.02,521,836
63541.02,523,832
63541.02,523,832
63541.02,523,836
63541.02,521,832
63541.02,520,832
63541.02,516,836
63541.02,514,832
63541.02,511,832
63541.02,508,836
63541.02,507,832
63541.02,505,836
63541.02,506,832
63541.02,509,832
63541.02,513,836
63541.02,516,832
63541.02,520,832
63541.02,523,836
63541.02,524,832
63541.04,525,832
63541.04,525,836
63541.04,526,832
63541.04,524,832
63541.04,522,836
63541.04,521,832
63541.04,519,832
63541.04,520,836
63541.04,519,832
63541.04,521,832
63541.04,520,836
63541.04,521,832
63541.04,522,832
63541.04,524,836
63541.04,525,832
63541.04,525,832
63541.05,525,836
63541.05,523,832
63541.05,524,832
63541.05,523,836
63541.05,522,832
63541.05,520,832
63541.05,519,836
63541.05,517,832
63541.05,516,832
63541.05,515,836
63541.05,515,832
63541.05,517,836
63541.05,518,832
63541.05,520,832
63541.05,521,836
63541.05,521,832
63541.06,520,832
63541.06,517,836
63541.06,517,832
63541.06,516,832
63541.06,516,836
63541.06,515,832
63541.06,516,832
63541.06,517,836
63541.06,517,832
63541.06,520,832
63541.06,519,836
63541.06,521,832
63541.06,522,832
63541.06,522,836
63541.06,525,832
63541.06,526,832
63541.08,525,836
63541.08,523,832
63541.08,522,832
63541.08,520,836
63541.08,519,832
63541.08,517,832
63541.08,515,836
63541.08,517,832
63541.08,517,836
63541.08,518,832
63541.08,519,832
63541.08,519,836
63541.08,521,832
63541.08,521,832
63541.08,524,836
63541.08,526,832
63541.09,527,832
63541.09,526,836
63541.09,525,832
63541.09,522,832
63541.09,521,836
63541.09,521,832
63541.09,518,832
63541.09,517,836
63541.09,519,832
63541.09,520,832
63541.09,521,836
63541.09,521,832
63541.09,521,832
63541.09,522,836
63541.09,520,832
63541.09,521,832
63541.10,520,836
63541.10,517,832
63541.10,520,832
63541.10,519,836
63541.10,519,832
63541.10,520,832
63541.10,518,836
63541.10,519,832
63541.10,519,836
63541.10,519,832
63541.10,520,832
63541.10,521,836
63541.10,524,832
63541.10,524,832
63541.10,525,836
63541.10,525,832
63541.11,524,832
63541.11,527,836
63541.11,529,832
63541.11,530,832
63541.11,531,836
63541.11,530,832
63541.11,531,832
63541.11,531,836
63541.11,530,832
63541.11,531,832
63541.11,530,836
63541.11,530,832
63541.11,530,832
63541.11,527,836
63541.11,528,832
63541.11,525,832
63541.13,526,836
63541.13,528,832
63541.13,527,832
63541.13,529,836
63541.13,527,832
63541.13,527,832
63541.13,529,836
63541.13,527,832
63541.13,526,832
63541.13,522,836
63541.13,520,832
63541.13,521,836
63541.13,519,832
63541.13,520,832
63541.13,521,836
63541.13,522,832
63541.14,525,832
63541.14,526,836
63541.14,526,832
63541.14,526,832
63541.14,526,836
63541.14,527,832
63541.14,527,832
63541.14,528,836
63541.14,528,832
63541.14,530,832
63541.14,533,836
63541.14,534,832
63541.14,537,832
63541.14,537,836
63541.14,539,832
63541.14,542,832
63541.15,541,836
63541.15,542,832
63541.15,541,832
63541.15,541,836
63541.15,539,832
63541.15,535,832
63541.15,532,836
63541.15,528,832
63541.15,526,836
63541.15,525,832
63541.15,523,832
63541.15,525,836
63541.15,525,832
63541.15,528,832
63541.15,531,836
63541.15,534,832
63541.17,537,832
63541.17,539,836
63541.17,541,832
63541.17,539,832
63541.17,537,836
63541.17,534,832
63541.17,530,832
63541.17,529,836
63541.17,527,832
63541.17,529,832
63541.17,529,836
63541.17,529,832
63541.17,530,832
63541.17,531,836
63541.17,532,832
63541.17,532,832
63541.18,534,836
63541.18,535,832
63541.18,536,832
63541.18,535,836
63541.18,536,832
63541.18,535,832
63541.18,535,836
63541.18,537,832
63541.18,535,832
63541.18,536,836
63541.18,536,832
63541.18,536,836
63541.18,533,832
63541.18,532,832
63541.18,531,836
63541.18,529,832
63541.19,529,832
63541.19,529,836
63541.19,532,832
63541.19,534,832
63541.19,534,836
63541.19,536,832
63541.19,538,832
63541.19,537,836
63541.19,538,832
63541.19,539,832
63541.19,538,836
63541.19,538,832
63541.19,535,832
63541.19,531,836
63541.19,527,832
63541.19,525,832
63541.21,525,836
63541.21,524,832
63541.21,524,832
63541.21,525,836
63541.21,526,832
63541.21,526,832
63541.21,527,836
63541.21,529,832
63541.21,531,832
63541.21,533,836
63541.21,533,832
63541.21,535,836
63541.21,534,832
63541.21,534,832
63541.21,532,836
63541.21,532,832
63541.22,531,832
63541.22,530,836
63541.22,529,832
63541.22,528,832
63541.22,531,836
63541.22,533,832
63541.22,534,832
63541.22,535,836
63541.22,536,832
63541.22,537,832
63541.22,536,836
63541.22,537,832
63541.22,539,832
63541.22,538,836
63541.22,537,832
63541.22,535,832
63541.24,533,836
63541.24,531,832
63541.24,530,832
63541.24,533,836
63541.24,534,832
63541.24,535,832
63541.24,534,836
63541.24,534,832
63541.24,533,832
63541.24,533,836
63541.24,534,832
63541.24,532,836
63541.24,531,832
63541.24,530,832
63541.24,528,836
63541.24,527,832
63541.25,525,832
63541.25,525,836
63541.25,524,832
63541.25,524,832
63541.25,527,836
63541.25,529,832
63541.25,533,832
63541.25,537,836
63541.25,538,832
63541.25,540,832
63541.25,540,836
63541.25,541,832
63541.25,541,832
63541.25,540,836
63541.25,540,832
63541.25,537,832
63541.26,535,836
63541.26,532,832
63541.26,530,832
63541.26,529,836
63541.26,530,832
63541.26,532,832
63541.26,535,836
63541.26,537,832
63541.26,540,836
63541.26,539,832
63541.26,539,832
63541.26,541,836
63541.26,540,832
63541.26,540,832
63541.26,537,836
63541.26,534,832
63541.28,532,832
63541.28,529,836
63541.28,528,832
63541.28,528,832
63541.28,526,836
63541.28,528,832
63541.28,529,832
63541.28,531,836
63541.28,533,832
63541.28,534,832
63541.28,536,836
63541.28,535,832
63541.28,534,832
63541.28,534,836
63541.28,533,832
63541.28,532,832
63541.29,531,836
63541.29,529,832
63541.29,528,832
63541.29,528,836
63541.29,527,832
63541.29,529,832
63541.29,531,836
63541.29,532,832
63541.29,533,836
63541.29,533,832
63541.29,532,832
63541.29,531,836
63541.29,530,832
63541.29,528,832
63541.29,529,836
63541.29,530,832
63541.30,529,832
63541.30,528,836
63541.30,527,832
63541.30,528,832
63541.30,530,836
63541.30,530,832
63541.30,534,832
63541.30,535,836
63541.30,536,832
63541.30,539,832
63541.30,538,836
63541.30,537,832
63541.30,537,832
63541.30,534,836
63541.30,534,844
63541.30,531,820
63541.32,528,836
63541.32,527,832
63541.32,526,832
63541.32,527,836
63541.32,525,832
63541.32,524,832
63541.32,524,836
63541.32,525,832
63541.32,526,836
63541.32,527,832
63541.32,528,832
63541.32,527,836
63541.32,526,832
63541.32,524,832
63541.32,521,836
63541.32,522,832
63541.33,520,832
63541.33,517,836
63541.33,516,832
63541.33,514,832
63541.33,515,836
63541.33,516,832
63541.33,518,832
63541.33,521,836
63541.33,524,832
63541.33,526,832
63541.33,527,836
63541.33,528,832
63541.33,526,832
63541.33,526,836
63541.33,523,832
63541.33,520,832
63541.34,519,836
63541.34,517,832
63541.34,517,832
63541.34,514,836
63541.34,514,832
63541.34,516,832
63541.34,518,836
63541.34,519,832
63541.34,522,836
63541.34,526,832
63541.34,527,832
63541.34,528,836
63541.34,526,832
63541.34,524,832
63541.34,522,836
63541.34,521,832
63541.35,523,832
63541.35,524,836
63541.35,526,832
63541.35,527,832
63541.35,529,836
63541.35,529,832
63541.35,530,832
63541.35,531,836
63541.35,530,832
63541.35,532,832
63541.35,530,836
63541.35,529,832
63541.35,526,832
63541.35,525,836
63541.35,526,832
63541.35,525,832
63541.37,524,836
63541.37,524,832
63541.37,525,832
63541.37,523,836
63541.37,523,832
63541.37,524,832
63541.37,523,836
63541.37,524,832
63541.37,523,832
63541.37,525,836
63541.37,525,832
63541.37,524,836
63541.37,524,832
63541.37,523,832
63541.37,522,836
63541.37,522,832
63541.38,523,832
63541.38,523,836
63541.38,524,832
63541.38,528,832
63541.38,529,836
63541.38,529,832
63541.38,527,832
63541.38,528,836
63541.38,528,832
63541.38,530,832
63541.38,532,836
63541.38,533,832
63541.38,533,832
63541.38,530,836
63541.38,528,832
63541.38,525,832
63541.40,523,836
63541.40,524,832
63541.40,525,832
63541.40,526,836
63541.40,525,832
63541.40,526,832
63541.40,527,836
63541.40,528,832
63541.40,531,832
63541.40,530,836
63541.40,532,832
63541.40,532,836
63541.40,529,832
63541.40,528,832
63541.40,527,836
63541.40,528,832
63541.41,526,832
63541.41,524,836
63541.41,522,832
63541.41,521,832
63541.41,524,836
63541.41,525,832
63541.41,528,832
63541.41,529,836
63541.41,530,832
63541.41,533,832
63541.41,533,836
63541.41,536,832
63541.41,536,832
63541.41,536,836
63541.41,534,832
63541.41,532,832
63541.42,531,836
63541.42,527,832
63541.42,526,832
63541.42,529,836
63541.42,530,832
63541.42,532,832
63541.42,531,836
63541.42,531,832
63541.42,527,836
63541.42,525,832
63541.42,527,832
63541.42,526,836
63541.42,525,832
63541.42,523,832
63541.42,521,836
63541.42,520,832
63541.44,519,832
63541.44,520,836
63541.44,521,832
63541.44,524,832
63541.44,528,836
63541.44,529,832
63541.44,528,832
63541.44,526,836
63541.44,528,832
63541.44,531,832
63541.44,531,836
63541.44,532,832
63541.44,528,832
63541.44,525,836
63541.44,525,832
63541.44,525,832
63541.45,526,836
63541.45,527,832
63541.45,528,832
63541.45,530,836
63541.45,532,832
63541.45,533,832
63541.45,534,836
63541.45,533,832
63541.45,534,836
63541.45,532,832
63541.45,531,832
63541.45,531,836
63541.45,530,832
63541.45,530,832
63541.45,530,836
63541.45,529,832
63541.46,527,832
63541.46,524,836
63541.46,520,832
63541.46,517,832
63541.46,518,836
63541.46,522,832
63541.46,521,832
63541.46,520,836
63541.46,519,832
63541.46,521,832
63541.46,524,836
63541.46,524,832
63541.46,527,832
63541.46,528,836
63541.46,529,832
63541.46,528,832
63541.48,526,836
63541.48,524,832
63541.48,522,832
63541.48,520,836
63541.48,521,832
63541.48,519,832
63541.48,522,836
63541.48,522,832
63541.48,523,836
63541.48,523,832
63541.48,525,832
63541.48,528,836
63541.48,529,832
63541.48,529,832
63541.48,527,836
63541.48,527,832
63541.49,528,832
63541.49,527,836
63541.49,525,832
63541.49,524,832
63541.49,523,836
63541.49,526,832
63541.49,527,832
63541.49,528,836
63541.49,527,832
63541.49,528,832
63541.49,529,836
63541.49,528,832
63541.49,528,832
63541.49,528,836
63541.49,527,832
63541.49,525,832
63541.50,524,836
63541.50,524,832
63541.50,521,832
63541.50,522,836
63541.50,522,832
63541.50,524,832
63541.50,526,836
63541.50,529,832
63541.50,531,836
63541.50,529,832
63541.50,528,832
63541.50,528,836
63541.50,527,832
63541.50,525,832
63541.50,523,836
63541.50,527,832
63541.51,527,832
63541.51,529,836
63541.51,530,832
63541.51,529,832
63541.51,528,836
63541.51,527,832
63541.51,529,832
63541.51,527,836
63541.51,527,832
63541.51,527,832
63541.51,526,836
63541.51,524,832
63541.51,520,832
63541.51,520,836
63541.51,519,832
63541.51,523,832
63541.53,524,836
63541.53,525,832
63541.53,526,832
63541.53,525,836
63541.53,526,832
63541.53,526,832
63541.53,528,836
63541.53,530,832
63541.53,530,832
63541.53,528,836
63541.53,526,832
63541.53,526,836
63541.53,526,832
63541.53,528,832
63541.53,531,836
63541.53,534,832
63541.55,538,832
63541.55,540,836
63541.55,542,832
63541.55,542,832
63541.55,543,836
63541.55,545,832
63541.55,544,832
63541.55,545,836
63541.55,543,832
63541.55,543,832
63541.55,544,836
63541.55,545,832
63541.55,550,832
63541.55,552,836
63541.55,553,832
63541.55,554,832
63541.56,556,836
63541.56,560,832
63541.56,563,832
63541.56,566,836
63541.56,567,832
63541.56,568,832
63541.56,570,836
63541.56,571,832
63541.56,577,836
63541.56,581,832
63541.56,583,832
63541.56,585,836
63541.56,586,832
63541.56,589,832
63541.56,588,836
63541.56,590,832
63541.57,595,832
63541.57,597,836
63541.57,600,832
63541.57,601,832
63541.57,603,836
63541.57,605,832
63541.57,608,832
63541.57,613,836
63541.57,616,832
63541.57,617,832
63541.57,615,836
63541.57,614,832
63541.57,612,832
63541.57,608,836
63541.57,608,832
63541.57,607,832
63541.58,609,836
63541.58,615,832
63541.58,619,832
63541.58,624,836
63541.58,627,832
63541.58,631,832
63541.58,637,836
63541.58,639,832
63541.58,642,832
63541.58,642,836
63541.58,641,832
63541.58,641,836
63541.58,641,832
63541.58,642,832
63541.58,644,836
63541.58,645,832
63541.60,648,832
63541.60,654,836
63541.60,658,832
63541.60,662,832
63541.60,666,836
63541.60,670,832
63541.60,672,832
63541.60,673,836
63541.60,674,832
63541.60,672,832
63541.60,669,836
63541.60,668,832
63541.60,666,832
63541.60,666,836
63541.60,667,832
63541.60,669,832
63541.61,670,836
63541.61,671,832
63541.61,673,832
63541.61,673,836
63541.61,675,832
63541.61,675,832
63541.61,675,836
63541.61,673,832
63541.61,670,832
63541.61,671,836
63541.61,670,832
63541.61,672,836
63541.61,673,832
63541.61,672,832
63541.61,674,836
63541.61,675,832
63541.62,676,832
63541.62,678,836
63541.62,680,832
63541.62,683,832
63541.62,681,836
63541.62,681,832
63541.62,680,832
63541.62,680,836
63541.62,680,832
63541.62,679,832
63541.62,681,836
63541.62,682,832
63541.62,685,832
63541.62,687,836
63541.62,688,832
63541.62,689,832
63541.63,692,836
63541.63,694,832
63541.63,695,832
63541.63,695,836
63541.63,696,832
63541.63,694,832
63541.63,694,836
63541.63,696,832
63541.63,695,836
63541.63,695,832
63541.63,693,832
63541.63,693,836
63541.63,691,832
63541.63,690,832
63541.63,693,836
63541.63,694,832
63541.65,696,832
63541.65,697,836
63541.65,700,832
63541.65,702,832
63541.65,705,836
63541.65,707,832
63541.65,709,832
63541.65,711,836
63541.65,711,832
63541.65,711,832
63541.65,710,836
63541.65,710,832
63541.65,711,832
63541.65,709,836
63541.65,708,832
63541.65,706,832
63541.66,705,836
63541.66,704,844
63541.66,706,820
63541.66,708,836
63541.66,712,832
63541.66,714,832
63541.66,715,836
63541.66,716,832
63541.66,713,836
63541.66,712,832
63541.66,711,832
63541.66,709,836
63541.66,707,832
63541.66,704,832
63541.66,703,836
63541.66,702,832
63541.67,703,832
63541.67,705,836
63541.67,707,832
63541.67,709,832
63541.67,712,836
63541.67,715,832
63541.67,715,832
63541.67,713,836
63541.67,711,832
63541.67,711,832
63541.67,709,836
63541.67,708,832
63541.67,708,832
63541.67,712,836
63541.67,712,832
63541.67,715,832
63541.69,717,836
63541.69,718,832
63541.69,720,832
63541.69,721,836
63541.69,723,832
63541.69,725,832
63541.69,727,836
63541.69,726,832
63541.69,726,832
63541.69,724,836
63541.69,723,832
63541.69,724,836
63541.69,724,832
63541.69,727,832
63541.69,729,836
63541.69,730,832
63541.70,730,832
63541.70,730,836
63541.70,732,832
63541.70,732,832
63541.70,733,836
63541.70,732,832
63541.70,732,832
63541.70,729,836
63541.70,728,832
63541.70,726,832
63541.70,725,836
63541.70,725,832
63541.70,724,832
63541.70,725,836
63541.70,724,832
63541.70,724,832
63541.71,724,836
63541.71,723,832
63541.71,724,832
63541.71,725,836
63541.71,727,832
63541.71,730,832
63541.71,732,836
63541.71,735,832
63541.71,736,832
63541.71,738,836
63541.71,737,832
63541.71,738,836
63541.71,737,832
63541.71,736,832
63541.71,734,836
63541.71,730,832
63541.73,727,832
63541.73,727,836
63541.73,727,832
63541.73,730,832
63541.73,733,836
63541.73,735,832
63541.73,735,832
63541.73,733,836
63541.73,732,832
63541.73,729,832
63541.73,726,836
63541.73,725,832
63541.73,721,832
63541.73,719,836
63541.73,718,832
63541.73,717,832
63541.74,716,836
63541.74,714,832
63541.74,714,832
63541.74,716,836
63541.74,718,832
63541.74,720,832
63541.74,719,836
63541.74,719,832
63541.74,719,832
63541.74,717,836
63541.74,716,832
63541.74,717,836
63541.74,719,832
63541.74,720,832
63541.74,720,836
63541.74,722,832
63541.76,722,832
63541.76,722,836
63541.76,722,832
63541.76,720,832
63541.76,721,836
63541.76,721,832
63541.76,720,832
63541.76,720,836
63541.76,718,832
63541.76,719,832
63541.76,720,836
63541.76,720,832
63541.76,719,832
63541.76,717,836
63541.76,716,832
63541.76,716,832
63541.77,717,836
63541.77,719,832
63541.77,720,832
63541.77,721,836
63541.77,720,832
63541.77,717,832
63541.77,713,836
63541.77,707,832
63541.77,706,836
63541.77,704,832
63541.77,700,832
63541.77,697,836
63541.77,694,832
63541.77,692,832
63541.77,689,836
63541.77,689,832
63541.78,693,832
63541.78,696,836
63541.78,701,832
63541.78,702,832
63541.78,704,836
63541.78,705,832
63541.78,706,832
63541.78,706,836
63541.78,705,832
63541.78,704,832
63541.78,703,836
63541.78,701,832
63541.78,700,832
63541.78,699,836
63541.78,697,832
63541.78,695,832
63541.80,694,836
63541.80,692,832
63541.80,690,832
63541.80,690,836
63541.80,690,832
63541.80,691,832
63541.80,694,836
63541.80,696,832
63541.80,697,832
63541.80,695,836
63541.80,693,832
63541.80,692,836
63541.80,691,832
63541.80,690,832
63541.80,689,836
63541.80,691,832
63541.81,689,832
63541.81,689,836
63541.81,688,832
63541.81,686,832
63541.81,683,836
63541.81,681,832
63541.81,681,832
63541.81,680,836
63541.81,679,832
63541.81,679,832
63541.81,679,836
63541.81,678,832
63541.81,678,832
63541.81,678,836
63541.81,677,832
63541.81,677,832
63541.82,677,836
63541.82,675,832
63541.82,674,832
63541.82,673,836
63541.82,675,832
63541.82,676,832
63541.82,677,836
63541.82,676,832
63541.82,674,836
63541.82,673,832
63541.82,671,832
63541.82,672,836
63541.82,670,832
63541.82,670,832
63541.82,671,836
63541.82,670,832
63541.84,670,832
63541.84,670,836
63541.84,671,832
63541.84,671,832
63541.84,673,836
63541.84,673,832
63541.84,672,832
63541.84,671,836
63541.84,669,832
63541.84,666,832
63541.84,664,836
63541.84,664,832
63541.84,665,832
63541.84,667,836
63541.84,668,832
63541.84,670,832
63541.85,672,836
63541.85,671,832
63541.85,668,832
63541.85,667,836
63541.85,665,832
63541.85,663,832
63541.85,662,836
63541.85,662,832
63541.85,661,848
63541.85,661,820
63541.85,663,832
63541.85,664,836
63541.85,663,832
63541.85,663,832
63541.85,663,836
63541.85,663,832
63541.87,665,832
63541.87,664,836
63541.87,665,832
63541.87,662,832
63541.87,661,836
63541.87,660,832
63541.87,660,832
63541.87,662,836
63541.87,663,832
63541.87,663,832
63541.87,663,836
63541.87,663,832
63541.87,663,832
63541.87,662,836
63541.87,661,832
63541.87,661,832
63541.88,657,836
63541.88,654,832
63541.88,652,832
63541.88,649,836
63541.88,646,832
63541.88,646,832
63541.88,647,836
63541.88,647,832
63541.88,648,836
63541.88,651,832
63541.88,654,832
63541.88,655,836
63541.88,655,832
63541.88,658,832
63541.88,660,836
63541.88,661,832
63541.89,659,832
63541.89,656,836
63541.89,653,832
63541.89,651,832
63541.89,652,836
63541.89,650,832
63541.89,650,832
63541.89,650,836
63541.89,649,832
63541.89,647,832
63541.89,644,836
63541.89,643,832
63541.89,643,832
63541.89,644,836
63541.89,647,832
63541.89,647,832
63541.90,647,836
63541.90,648,832
63541.90,648,832
63541.90,647,836
63541.90,646,832
63541.90,648,832
63541.90,649,836
63541.90,650,832
63541.90,651,836
63541.90,651,832
63541.90,650,832
63541.90,650,836
63541.90,649,832
63541.90,646,832
63541.90,646,836
63541.90,646,832
63541.92,644,832
63541.92,644,836
63541.92,643,832
63541.92,644,832
63541.92,644,836
63541.92,643,832
63541.92,642,832
63541.92,639,836
63541.92,635,832
63541.92,635,832
63541.92,633,836
63541.92,633,832
63541.92,632,832
63541.92,630,836
63541.92,628,832
63541.92,626,832
63541.93,627,836
63541.93,627,832
63541.93,627,832
63541.93,628,836
63541.93,627,832
63541.93,627,832
63541.93,624,836
63541.93,622,832
63541.93,619,832
63541.93,618,836
63541.93,620,832
63541.93,621,836
63541.93,623,832
63541.93,625,832
63541.93,625,836
63541.93,624,832
63541.94,623,832
63541.94,622,836
63541.94,619,832
63541.94,618,832
63541.94,617,836
63541.94,617,832
63541.94,618,832
63541.94,621,836
63541.94,624,832
63541.94,625,832
63541.94,625,836
63541.94,625,832
63541.94,626,832
63541.94,626,836
63541.94,628,832
63541.94,629,832
63541.96,629,836
63541.96,629,832
63541.96,629,832
63541.96,627,836
63541.96,624,832
63541.96,621,832
63541.96,620,836
63541.96,619,832
63541.96,617,832
63541.96,616,836
63541.96,614,832
63541.96,613,836
63541.96,615,832
63541.96,613,832
63541.96,613,836
63541.96,614,832
63541.97,616,832
63541.97,616,836
63541.97,616,832
63541.97,614,832
63541.97,613,836
63541.97,614,832
63541.97,614,832
63541.97,613,836
63541.97,611,832
63541.97,609,832
63541.97,609,836
63541.97,609,832
63541.97,612,832
63541.97,617,836
63541.97,620,832
63541.97,621,832
63541.98,622,836
63541.98,623,832
63541.98,620,832
63541.98,620,836
63541.98,620,832
63541.98,619,832
63541.98,619,836
63541.98,618,832
63541.98,618,832
63541.98,616,836
63541.98,616,832
63541.98,617,836
63541.98,616,832
63541.98,615,832
63541.98,616,836
63541.98,615,832
63542.00,613,832
63542.00,612,836
63542.00,608,832
63542.00,606,832
63542.00,604,836
63542.00,605,832
63542.00,606,832
63542.00,605,836
63542.00,605,832
63542.00,607,832
63542.00,610,836
63542.00,612,832
63542.00,611,832
63542.00,612,836
63542.00,612,832
63542.00,612,832
63542.01,613,836
63542.01,612,832
63542.01,611,832
63542.01,611,836
63542.01,610,844
63542.01,609,820
63542.01,608,836
63542.01,610,832
63542.01,611,832
63542.01,614,836
63542.01,616,832
63542.01,616,836
63542.01,617,832
63542.01,614,832
63542.01,613,836
63542.01,612,832
63542.02,613,832
63542.02,614,836
63542.02,612,832
63542.02,611,832
63542.02,611,836
63542.02,611,832
63542.02,609,832
63542.02,608,836
63542.02,609,832
63542.02,610,832
63542.02,613,836
63542.02,614,832
63542.02,615,832
63542.02,615,836
63542.02,614,832
63542.02,614,832
63542.03,609,836
63542.03,605,832
63542.03,599,832
63542.03,595,836
63542.03,594,832
63542.03,592,832
63542.03,592,836
63542.03,590,832
63542.03,589,832
63542.03,589,836
63542.03,586,832
63542.03,583,836
63542.03,581,832
63542.03,580,832
63542.03,576,836
63542.03,573,832
63542.05,570,832
63542.05,567,836
63542.05,564,832
63542.05,559,832
63542.05,556,836
63542.05,553,832
63542.05,551,832
63542.05,552,836
63542.05,551,832
63542.05,549,832
63542.05,545,836
63542.05,541,832
63542.05,538,832
63542.05,531,836
63542.05,527,832
63542.05,520,832
63542.06,516,836
63542.06,512,832
63542.06,507,832
63542.06,504,836
63542.06,500,832
63542.06,498,832
63542.06,495,836
63542.06,493,832
63542.06,491,832
63542.06,487,836
63542.06,487,832
63542.06,485,836
63542.06,482,832
63542.06,480,832
63542.06,474,836
63542.06,470,832
63542.08,466,832
63542.08,463,836
63542.08,462,832
63542.08,457,832
63542.08,453,836
63542.08,450,832
63542.08,448,832
63542.08,442,836
63542.08,438,832
63542.08,438,832
63542.08,437,836
63542.08,438,832
63542.08,439,832
63542.08,437,836
63542.08,435,832
63542.08,432,832
63542.09,430,836
63542.09,427,832
63542.09,422,832
63542.09,418,836
63542.09,412,832
63542.09,407,832
63542.09,405,836
63542.09,403,832
63542.09,403,836
63542.09,401,832
63542.09,400,832
63542.09,398,836
63542.09,396,832
63542.09,396,832
63542.09,396,836
63542.09,397,832
63542.10,397,832
63542.10,396,836
63542.10,396,832
63542.10,391,832
63542.10,387,836
63542.10,381,832
63542.10,378,832
63542.10,377,836
63542.10,374,832
63542.10,371,832
63542.10,367,836
63542.10,366,832
63542.10,363,832
63542.10,362,836
63542.10,362,832
63542.10,362,832
63542.12,363,836
63542.12,365,832
63542.12,364,832
63542.12,360,836
63542.12,357,832
63542.12,356,832
63542.12,355,836
63542.12,352,832
63542.12,350,832
63542.12,346,836
63542.12,344,832
63542.12,345,836
63542.12,345,832
63542.12,347,832
63542.12,346,836
63542.12,347,832
63542.13,345,832
63542.13,345,836
63542.13,348,832
63542.13,347,832
63542.13,348,836
63542.13,346,832
63542.13,346,832
63542.13,346,836
63542.13,343,832
63542.13,343,832
63542.13,342,836
63542.13,344,832
63542.13,346,832
63542.13,347,836
63542.13,348,832
63542.13,349,832
63542.14,349,836
63542.14,348,832
63542.14,347,832
63542.14,348,836
63542.14,348,832
63542.14,347,832
63542.14,348,836
63542.14,348,832
63542.14,349,832
63542.14,350,836
63542.14,353,832
63542.14,353,836
63542.14,352,832
63542.14,353,832
63542.14,353,836
63542.14,353,832
63542.16,355,832
63542.16,355,836
63542.16,355,832
63542.16,354,832
63542.16,352,836
63542.16,350,832
63542.16,349,832
63542.16,351,836
63542.16,352,832
63542.16,355,832
63542.16,355,836
63542.16,354,832
63542.16,355,832
63542.16,356,836
63542.16,358,832
63542.16,360,832
63542.17,361,836
63542.17,362,832
63542.17,363,832
63542.17,363,836
63542.17,362,832
63542.17,364,832
63542.17,362,836
63542.17,362,832
63542.17,362,832
63542.17,364,836
63542.17,365,832
63542.17,366,836
63542.17,367,832
63542.17,366,832
63542.17,366,836
63542.17,366,832
63542.19,364,832
63542.19,364,836
63542.19,365,832
63542.19,366,832
63542.19,367,836
63542.19,370,832
63542.19,371,832
63542.19,371,836
63542.19,373,832
63542.19,374,832
63542.19,375,836
63542.19,374,832
63542.19,374,832
63542.19,374,836
63542.19,372,832
63542.19,371,832
63542.19,368,836
63542.19,369,832
63542.19,369,832
63542.19,370,836
63542.19,374,832
63542.19,374,832
63542.19,376,836
63542.19,377,832
63542.19,378,832
63542.19,376,836
63542.19,373,832
63542.19,373,848
63542.19,371,820
63542.19,369,832
63542.19,370,836
63542.19,370,832
63542.21,370,832
63542.21,371,836
63542.21,373,832
63542.21,373,832
63542.21,375,836
63542.21,375,832
63542.21,377,832
63542.21,376,836
63542.21,377,832
63542.21,377,832
63542.21,377,836
63542.21,376,832
63542.21,377,832
63542.21,378,836
63542.21,380,832
63542.21,379,832
63542.22,381,836
63542.22,381,832
63542.22,385,832
63542.22,387,836
63542.22,388,832
63542.22,390,832
63542.22,389,836
63542.22,390,832
63542.22,387,836
63542.22,389,832
63542.22,390,832
63542.22,388,836
63542.22,388,832
63542.22,387,832
63542.22,386,836
63542.22,385,832
63542.24,386,832
63542.24,387,836
63542.24,387,832
63542.24,388,832
63542.24,391,836
63542.24,391,832
63542.24,392,832
63542.24,393,836
63542.24,394,832
63542.24,391,832
63542.24,389,836
63542.24,387,832
63542.24,386,832
63542.24,385,836
63542.24,385,832
63542.24,387,832
63542.25,387,836
63542.25,388,832
63542.25,391,832
63542.25,394,836
63542.25,396,832
63542.25,398,832
63542.25,398,836
63542.25,399,832
63542.25,397,836
63542.25,395,832
63542.25,391,832
63542.25,388,836
63542.25,389,832
63542.25,388,832
63542.25,390,836
63542.25,391,832
63542.26,390,832
63542.26,391,836
63542.26,389,832
63542.26,387,832
63542.26,385,836
63542.26,385,832
63542.26,388,832
63542.26,388,836
63542.26,390,832
63542.26,390,832
63542.26,390,836
63542.26,392,832
63542.26,393,832
63542.26,393,836
63542.26,392,832
63542.26,389,832
63542.28,388,836
63542.28,385,832
63542.28,383,832
63542.28,382,836
63542.28,381,832
63542.28,383,832
63542.28,385,836
63542.28,391,832
63542.28,394,832
63542.28,397,836
63542.28,402,832
63542.28,404,836
63542.28,404,832
63542.28,406,832
63542.28,405,836
63542.28,404,832
63542.29,402,832
63542.29,401,836
63542.29,400,832
63542.29,399,832
63542.29,401,836
63542.29,401,832
63542.29,405,832
63542.29,408,836
63542.29,405,832
63542.29,405,832
63542.29,405,836
63542.29,404,832
63542.29,403,832
63542.29,401,836
63542.29,401,832
63542.29,400,832
63542.30,398,836
63542.30,397,832
63542.30,395,832
63542.30,396,836
63542.30,396,832
63542.30,399,832
63542.30,402,836
63542.30,404,832
63542.30,406,832
63542.30,406,836
63542.30,406,832
63542.30,404,836
63542.30,401,832
63542.30,397,832
63542.30,395,836
63542.30,394,832
63542.32,393,832
63542.32,391,836
63542.32,394,832
63542.32,394,832
63542.32,397,836
63542.32,399,832
63542.32,402,832
63542.32,406,836
63542.32,408,832
63542.32,411,832
63542.32,409,836
63542.32,410,832
63542.32,407,832
63542.32,405,836
63542.32,403,832
63542.32,402,832
63542.33,402,836
63542.33,400,832
63542.33,402,832
63542.33,403,836
63542.33,406,832
63542.33,412,832
63542.33,413,836
63542.33,414,832
63542.33,413,836
63542.33,413,832
63542.33,415,832
63542.33,413,836
63542.33,412,832
63542.33,409,832
63542.33,409,836
63542.33,407,832
63542.35,404,832
63542.35,402,836
63542.35,401,832
63542.35,404,832
63542.35,406,836
63542.35,408,832
63542.35,408,832
63542.35,410,836
63542.35,414,832
63542.35,414,832
63542.35,415,836
63542.35,416,832
63542.35,418,832
63542.35,419,836
63542.35,420,832
63542.35,422,832
63542.36,421,836
63542.36,422,832
63542.36,423,832
63542.36,423,836
63542.36,421,832
63542.36,420,832
63542.36,417,836
63542.36,415,836
63542.36,412,828
63542.36,413,836
63542.36,417,832
63542.36,416,836
63542.36,420,832
63542.36,423,832
63542.36,425,836
63542.36,426,832
63542.37,426,832
63542.37,426,836
63542.37,424,832
63542.37,422,832
63542.37,420,836
63542.37,419,832
63542.37,419,832
63542.37,420,836
63542.37,421,832
63542.37,422,832
63542.37,424,836
63542.37,425,832
63542.37,428,832
63542.37,427,836
63542.37,425,832
63542.37,424,832
63542.38,424,836
63542.38,428,832
63542.38,429,832
63542.38,431,836
63542.38,430,832
63542.38,431,832
63542.38,429,836
63542.38,429,832
63542.38,432,832
63542.38,435,836
63542.38,437,832
63542.38,436,836
63542.38,437,832
63542.38,436,832
63542.38,435,836
63542.38,435,832
63542.40,433,832
63542.40,430,836
63542.40,429,832
63542.40,430,832
63542.40,431,836
63542.40,430,832
63542.40,431,832
63542.40,433,836
63542.40,435,832
63542.40,437,832
63542.40,436,836
63542.40,439,832
63542.40,440,832
63542.40,444,836
63542.40,445,832
63542.40,444,832
63542.41,443,836
63542.41,441,832
63542.41,438,832
63542.41,435,836
63542.41,432,832
63542.41,434,832
63542.41,433,836
63542.41,435,832
63542.41,435,836
63542.41,436,832
63542.41,437,832
63542.41,438,836
63542.41,440,832
63542.41,440,832
63542.41,438,836
63542.41,439,832
63542.42,438,832
63542.42,438,836
63542.42,439,832
63542.42,439,832
63542.42,439,836
63542.42,439,832
63542.42,439,832
63542.42,442,836
63542.42,443,832
63542.42,447,832
63542.42,449,836
63542.42,448,832
63542.42,450,832
63542.42,448,836
63542.42,447,832
63542.42,446,832
63542.44,446,836
63542.44,448,832
63542.44,448,832
63542.44,449,836
63542.44,449,832
63542.44,450,832
63542.44,452,836
63542.44,450,832
63542.44,449,832
63542.44,448,836
63542.44,448,832
63542.44,450,836
63542.44,449,832
63542.44,450,832
63542.44,452,836
63542.44,451,832
63542.45,453,832
63542.45,453,836
63542.45,453,832
63542.45,455,832
63542.45,455,836
63542.45,457,832
63542.45,455,832
63542.45,453,836
63542.45,450,832
63542.45,447,832
63542.45,445,836
63542.45,445,832
63542.45,444,832
63542.45,446,836
63542.45,445,832
63542.45,445,832
63542.46,444,836
63542.46,444,832
63542.46,445,832
63542.46,445,836
63542.46,444,832
63542.46,445,832
63542.46,447,836
63542.46,448,832
63542.46,448,836
63542.46,447,832
63542.46,448,832
63542.46,447,836
63542.46,448,832
63542.46,449,832
63542.46,450,836
63542.46,453,832
63542.48,454,832
63542.48,454,836
63542.48,453,832
63542.48,452,832
63542.48,452,836
63542.48,451,832
63542.48,450,832
63542.48,448,836
63542.48,447,832
63542.48,448,832
63542.48,447,836
63542.48,448,832
63542.48,448,832
63542.48,448,836
63542.48,451,832
63542.48,452,832
63542.49,455,836
63542.49,457,832
63542.49,458,832
63542.49,461,836
63542.49,462,832
63542.49,463,832
63542.49,459,836
63542.49,456,832
63542.49,451,836
63542.49,448,832
63542.49,449,832
63542.49,450,836
63542.49,453,832
63542.49,455,832
63542.49,459,836
63542.49,462,832
63542.50,463,832
63542.50,462,836
63542.50,460,832
63542.50,459,832
63542.50,457,836
63542.50,456,832
63542.50,455,832
63542.50,453,836
63542.50,453,832
63542.50,452,832
63542.50,454,836
63542.50,452,832
63542.50,456,832
63542.50,460,836
63542.50,461,832
63542.50,462,832
63542.52,462,836
63542.52,462,832
63542.52,462,832
63542.52,463,836
63542.52,461,832
63542.52,463,832
63542.52,464,836
63542.52,468,832
63542.52,470,836
63542.52,471,832
63542.52,471,832
63542.52,469,836
63542.52,467,832
63542.52,464,832
63542.52,461,836
63542.52,459,832
63542.53,460,832
63542.53,459,836
63542.53,458,832
63542.53,457,832
63542.53,459,836
63542.53,459,832
63542.53,460,832
63542.53,458,836
63542.53,459,832
63542.53,459,832
63542.53,459,836
63542.53,457,832
63542.53,453,832
63542.53,452,836
63542.53,450,832
63542.53,450,832
63542.54,449,836
63542.54,446,832
63542.54,446,832
63542.54,447,836
63542.54,449,832
63542.54,449,832
63542.54,451,836
63542.54,451,832
63542.54,454,832
63542.54,454,836
63542.54,453,832
63542.54,454,836
63542.54,453,832
63542.54,453,832
63542.54,452,848
63542.54,451,820
63542.55,450,832
63542.55,450,836
63542.55,451,832
63542.55,453,832
63542.55,456,836
63542.55,457,832
63542.55,457,832
63542.55,457,836
63542.55,454,832
63542.55,453,832
63542.55,451,836
63542.55,449,832
63542.55,450,832
63542.55,452,836
63542.55,453,832
63542.55,453,832
63542.57,455,836
63542.57,457,832
63542.57,460,832
63542.57,464,836
63542.57,466,832
63542.57,468,832
63542.57,467,836
63542.57,468,832
63542.57,468,836
63542.57,465,832
63542.57,461,832
63542.57,459,836
63542.57,457,832
63542.57,455,832
63542.57,454,836
63542.57,453,832
63542.58,455,832
63542.58,458,836
63542.58,462,832
63542.58,462,832
63542.58,463,836
63542.58,465,832
63542.58,464,832
63542.58,463,836
63542.58,462,832
63542.58,462,832
63542.58,463,836
63542.58,461,832
63542.58,461,832
63542.58,461,836
63542.58,461,832
63542.58,463,832
63542.60,464,836
63542.60,468,832
63542.60,473,832
63542.60,474,836
63542.60,478,832
63542.60,479,832
63542.60,479,836
63542.60,478,832
63542.60,476,836
63542.60,475,832
63542.60,476,832
63542.60,476,836
63542.60,479,832
63542.60,480,832
63542.60,480,836
63542.60,482,832
63542.61,484,832
63542.61,487,836
63542.61,488,832
63542.61,486,832
63542.61,487,836
63542.61,490,832
63542.61,491,832
63542.61,492,836
63542.61,492,832
63542.61,491,832
63542.61,491,836
63542.61,492,832
63542.61,491,832
63542.61,492,836
63542.61,493,832
63542.61,493,832
63542.63,495,836
63542.63,496,832
63542.63,497,832
63542.63,498,836
63542.63,498,832
63542.63,499,832
63542.63,501,836
63542.63,500,832
63542.63,501,832
63542.63,501,836
63542.63,501,832
63542.63,501,836
63542.63,501,832
63542.63,501,832
63542.63,500,836
63542.63,499,832
63542.64,500,832
63542.64,503,836
63542.64,503,832
63542.64,501,832
63542.64,498,836
63542.64,497,832
63542.64,493,832
63542.64,490,836
63542.64,488,832
63542.64,486,832
63542.64,486,836
63542.64,485,832
63542.64,483,832
63542.64,479,836
63542.64,474,832
63542.64,471,832
63542.65,468,836
63542.65,467,832
63542.65,466,832
63542.65,468,836
63542.65,468,832
63542.65,467,832
63542.65,464,836
63542.65,461,832
63542.65,459,836
63542.65,455,832
63542.65,450,832
63542.65,446,836
63542.65,441,832
63542.65,438,832
63542.65,435,836
63542.65,431,832
63542.66,428,832
63542.66,424,836
63542.66,423,832
63542.66,421,832
63542.66,420,836
63542.66,419,832
63542.66,421,832
63542.66,421,836
63542.66,420,832
63542.66,417,832
63542.66,413,836
63542.66,409,832
63542.66,405,832
63542.66,402,836
63542.66,398,832
63542.66,396,832
63542.68,396,836
63542.68,395,832
63542.68,393,832
63542.68,392,836
63542.68,388,832
63542.68,385,832
63542.68,382,836
63542.68,381,832
63542.68,381,832
63542.68,382,836
63542.68,380,832
63542.68,377,836
63542.68,375,832
63542.68,373,832
63542.68,372,836
63542.68,369,832
63542.69,368,832
63542.69,367,836
63542.69,368,832
63542.69,367,832
63542.69,365,836
63542.69,359,832
63542.69,355,832
63542.69,353,836
63542.69,350,832
63542.69,348,832
63542.69,346,836
63542.69,347,832
63542.69,345,832
63542.69,342,836
63542.69,341,832
63542.69,341,832
63542.70,339,836
63542.70,339,832
63542.70,340,832
63542.70,341,836
63542.70,341,832
63542.70,339,832
63542.70,335,836
63542.70,333,832
63542.70,329,832
63542.70,325,836
63542.70,320,836
63542.70,317,832
63542.70,315,832
63542.70,316,832
63542.70,316,836
63542.70,313,832
63542.72,311,832
63542.72,310,836
63542.72,312,832
63542.72,313,832
63542.72,314,836
63542.72,313,832
63542.72,312,832
63542.72,311,836
63542.72,309,832
63542.72,308,832
63542.72,305,836
63542.72,303,832
63542.72,303,832
63542.72,304,836
63542.72,301,832
63542.72,299,832
63542.73,296,836
63542.73,293,832
63542.73,293,832
63542.73,292,836
63542.73,291,832
63542.73,288,832
63542.73,287,836
63542.73,287,832
63542.73,286,836
63542.73,285,832
63542.73,285,832
63542.73,285,836
63542.73,283,832
63542.73,281,832
63542.73,280,836
63542.73,277,832
63542.74,276,832
63542.74,273,836
63542.74,273,832
63542.74,272,832
63542.74,270,836
63542.74,267,832
63542.74,264,832
63542.74,264,836
63542.74,267,832
63542.74,269,832
63542.74,269,836
63542.74,270,832
63542.74,269,832
63542.74,270,836
63542.74,268,832
63542.74,268,832
63542.76,267,836
63542.76,265,832
63542.76,265,832
63542.76,263,836
63542.76,265,832
63542.76,265,832
63542.76,262,836
63542.76,260,832
63542.76,258,832
63542.76,259,836
63542.76,257,832
63542.76,256,836
63542.76,256,832
63542.76,258,832
63542.76,261,836
63542.76,263,832
63542.77,262,832
63542.77,260,836
63542.77,257,832
63542.77,256,832
63542.77,255,836
63542.77,253,832
63542.77,252,832
63542.77,252,836
63542.77,251,832
63542.77,250,832
63542.77,249,836
63542.77,249,832
63542.77,250,832
63542.77,250,836
63542.77,252,832
63542.77,252,832
63542.78,251,836
63542.78,248,832
63542.78,245,832
63542.78,244,836
63542.78,243,832
63542.78,242,832
63542.78,242,836
63542.78,241,832
63542.78,243,832
63542.78,244,836
63542.78,246,832
63542.78,248,836
63542.78,249,832
63542.78,251,832
63542.78,250,836
63542.78,250,832
63542.80,248,832
63542.80,244,836
63542.80,242,832
63542.80,240,832
63542.80,239,836
63542.80,240,832
63542.80,239,832
63542.80,237,836
63542.80,237,832
63542.80,240,832
63542.80,241,836
63542.80,242,832
63542.80,242,832
63542.80,245,836
63542.80,246,832
63542.80,246,832
63542.81,245,836
63542.81,242,832
63542.81,240,832
63542.81,238,836
63542.81,237,832
63542.81,238,832
63542.81,239,836
63542.81,239,832
63542.81,242,836
63542.81,245,832
63542.81,247,832
63542.81,249,836
63542.81,247,832
63542.81,246,832
63542.81,248,836
63542.81,249,832
63542.82,249,832
63542.82,248,836
63542.82,247,832
63542.82,245,832
63542.82,243,836
63542.82,240,832
63542.82,240,832
63542.82,240,836
63542.82,239,832
63542.82,239,832
63542.82,237,836
63542.82,238,832
63542.82,239,832
63542.82,239,836
63542.82,240,832
63542.82,240,832
63542.84,239,836
63542.84,240,832
63542.84,240,832
63542.84,238,836
63542.84,236,832
63542.84,234,832
63542.84,236,836
63542.84,235,832
63542.84,235,836
63542.84,236,832
63542.84,235,832
63542.84,234,836
63542.84,233,832
63542.84,233,832
63542.84,235,836
63542.84,238,832
63542.85,240,832
63542.85,241,836
63542.85,241,832
63542.85,240,832
63542.85,238,836
63542.85,238,832
63542.85,239,832
63542.85,240,836
63542.85,240,832
63542.85,239,832
63542.85,238,836
63542.85,238,832
63542.85,240,832
63542.85,240,836
63542.85,241,832
63542.85,242,832
63542.87,243,836
63542.87,243,832
63542.87,243,832
63542.87,243,836
63542.87,242,832
63542.87,240,832
63542.87,239,836
63542.87,240,832
63542.87,241,832
63542.87,242,836
63542.87,245,832
63542.87,246,836
63542.87,247,832
63542.87,249,832
63542.87,250,836
63542.87,252,832
63542.88,251,832
63542.88,253,836
63542.88,251,832
63542.88,249,832
63542.88,247,836
63542.88,246,832
63542.88,246,832
63542.88,247,836
63542.88,250,832
63542.88,252,832
63542.88,253,836
63542.88,256,832
63542.88,258,832
63542.88,260,836
63542.88,263,832
63542.88,264,832
63542.89,266,836
63542.89,266,832
63542.89,266,832
63542.89,266,836
63542.89,265,832
63542.89,264,832
63542.89,264,836
63542.89,263,832
63542.89,265,832
63542.89,264,836
63542.89,266,832
63542.89,270,836
63542.89,273,832
63542.89,276,832
63542.89,276,836
63542.89,276,832
63542.90,277,832
63542.90,276,840
63542.90,277,828
63542.90,276,832
63542.90,276,836
63542.90,277,832
63542.90,278,832
63542.90,279,836
63542.90,281,832
63542.90,282,832
63542.90,285,836
63542.90,288,832
63542.90,292,832
63542.90,296,836
63542.90,299,832
63542.90,303,832
63542.92,307,836
63542.92,309,832
63542.92,309,832
63542.92,309,836
63542.92,309,832
63542.92,311,832
63542.92,312,836
63542.92,316,832
63542.92,319,832
63542.92,324,836
63542.92,327,832
63542.92,330,836
63542.92,333,832
63542.92,336,832
63542.92,338,836
63542.92,339,832
63542.93,338,832
63542.93,338,836
63542.93,339,832
63542.93,340,832
63542.93,340,836
63542.93,340,832
63542.93,342,832
63542.93,344,836
63542.93,347,832
63542.93,352,832
63542.93,356,836
63542.93,361,832
63542.93,367,832
63542.93,370,836
63542.93,374,832
63542.93,378,832
63542.94,379,836
63542.94,381,832
63542.94,382,832
63542.94,381,836
63542.94,381,832
63542.94,383,832
63542.94,386,836
63542.94,388,832
63542.94,391,832
63542.94,396,836
63542.94,400,832
63542.94,405,836
63542.94,410,832
63542.94,416,832
63542.94,421,836
63542.94,425,832
63542.96,427,832
63542.96,428,836
63542.96,429,832
63542.96,428,832
63542.96,427,836
63542.96,424,832
63542.96,422,832
63542.96,420,836
63542.96,419,832
63542.96,420,832
63542.96,424,836
63542.96,428,832
63542.96,432,832
63542.96,436,836
63542.96,440,832
63542.96,443,832
63542.97,444,836
63542.97,445,832
63542.97,445,832
63542.97,446,836
63542.97,445,832
63542.97,444,832
63542.97,442,836
63542.97,440,832
63542.97,438,832
63542.97,436,836
63542.97,438,832
63542.97,441,836
63542.97,445,832
63542.97,449,832
63542.97,453,836
63542.97,457,832
63542.98,461,832
63542.98,466,836
63542.98,469,832
63542.98,470,832
63542.98,471,836
63542.98,471,832
63542.98,471,832
63542.98,472,836
63542.98,472,832
63542.98,474,832
63542.98,479,836
63542.98,484,832
63542.98,489,832
63542.98,494,836
63542.98,499,832
63542.98,503,832
63543.00,508,836
63543.00,509,832
63543.00,511,832
63543.00,513,836
63543.00,515,832
63543.00,518,832
63543.00,520,836
63543.00,524,832
63543.00,527,836
63543.00,531,832
63543.00,535,832
63543.00,542,836
63543.00,550,832
63543.00,557,832
63543.00,562,836
63543.00,567,832
63543.01,570,832
63543.01,573,836
63543.01,576,832
63543.01,577,832
63543.01,580,836
63543.01,582,832
63543.01,585,832
63543.01,588,836
63543.01,590,832
63543.01,596,832
63543.01,601,836
63543.01,607,832
63543.01,615,832
63543.01,621,836
63543.01,627,832
63543.01,633,832
63543.02,636,836
63543.02,640,832
63543.02,642,832
63543.02,643,836
63543.02,644,832
63543.02,645,832
63543.02,646,836
63543.02,646,832
63543.02,647,836
63543.02,649,832
63543.02,652,832
63543.02,657,836
63543.02,663,832
63543.02,669,832
63543.02,675,836
63543.02,680,832
63543.04,686,832
63543.04,690,836
63543.04,693,832
63543.04,694,832
63543.04,695,836
63543.04,698,832
63543.04,696,832
63543.04,697,836
63543.04,697,832
63543.04,697,832
63543.04,697,836
63543.04,696,832
63543.04,699,832
63543.04,702,836
63543.04,705,832
63543.04,707,832
63543.05,710,836
63543.05,712,832
63543.05,713,832
63543.05,714,836
63543.05,715,832
63543.05,717,832
63543.05,719,836
63543.05,719,832
63543.05,719,832
63543.05,718,836
63543.05,716,832
63543.05,716,836
63543.05,717,832
63543.05,719,836
63543.05,721,832
63543.05,722,832
63543.06,724,832
63543.06,726,836
63543.06,727,832
63543.06,729,832
63543.06,730,836
63543.06,732,832
63543.06,734,832
63543.06,733,836
63543.06,734,832
63543.06,732,832
63543.06,731,836
63543.06,729,832
63543.06,726,832
63543.06,725,836
63543.06,726,832
63543.06,726,832
63543.07,726,836
63543.07,726,832
63543.07,724,832
63543.07,726,836
63543.07,724,832
63543.07,725,832
63543.07,725,836
63543.07,723,832
63543.07,723,836
63543.07,723,832
63543.07,721,832
63543.07,720,836
63543.07,718,832
63543.07,717,832
63543.07,718,836
63543.07,717,832
63543.09,716,832
63543.09,716,836
63543.09,715,832
63543.09,715,832
63543.09,716,836
63543.09,716,832
63543.09,715,832
63543.09,714,836
63543.09,711,832
63543.09,709,832
63543.09,705,836
63543.09,701,832
63543.09,698,832
63543.09,696,836
63543.09,695,832
63543.09,693,832
63543.10,692,836
63543.10,690,832
63543.10,689,832
63543.10,688,836
63543.10,690,832
63543.10,692,832
63543.10,693,836
63543.10,693,832
63543.10,692,832
63543.10,691,836
63543.10,688,832
63543.10,686,836
63543.10,684,832
63543.10,682,832
63543.10,680,836
63543.10,679,832
63543.12,680,832
63543.12,677,836
63543.12,677,832
63543.12,677,832
63543.12,678,836
63543.12,680,832
63543.12,682,832
63543.12,684,836
63543.12,686,832
63543.12,687,832
63543.12,687,836
63543.12,685,832
63543.12,681,832
63543.12,679,836
63543.12,675,832
63543.12,672,832
63543.13,670,836
63543.13,669,832
63543.13,668,832
63543.13,666,836
63543.13,666,832
63543.13,667,832
63543.13,670,836
63543.13,673,832
63543.13,673,836
63543.13,674,832
63543.13,673,832
63543.13,671,836
63543.13,668,832
63543.13,666,832
63543.13,663,836
63543.13,661,832
63543.14,659,832
63543.14,656,836
63543.14,653,832
63543.14,650,832
63543.14,649,836
63543.14,649,832
63543.14,652,832
63543.14,652,836
63543.14,653,832
63543.14,654,832
63543.14,656,836
63543.14,655,832
63543.14,653,832
63543.14,652,836
63543.14,649,832
63543.14,645,832
63543.16,642,836
63543.16,640,832
63543.16,637,832
63543.16,634,836
63543.16,631,832
63543.16,631,832
63543.16,630,836
63543.16,631,832
63543.16,631,832
63543.16,632,836
63543.16,634,832
63543.16,634,836
63543.16,634,832
63543.16,632,832
63543.16,631,836
63543.16,629,832
63543.17,627,832
63543.17,625,836
63543.17,623,832
63543.17,622,832
63543.17,622,836
63543.17,621,832
63543.17,622,832
63543.17,624,836
63543.17,626,832
63543.17,629,832
63543.17,630,836
63543.17,630,832
63543.17,630,832
63543.17,628,836
63543.17,626,832
63543.17,625,832
63543.18,623,836
63543.18,622,832
63543.18,622,832
63543.18,620,836
63543.18,619,832
63543.18,618,832
63543.18,619,836
63543.18,621,832
63543.18,623,832
63543.18,624,836
63543.18,625,832
63543.18,625,836
63543.18,624,832
63543.18,623,832
63543.18,620,836
63543.18,620,832
63543.20,617,832
63543.20,615,836
63543.20,614,832
63543.20,613,832
63543.20,614,836
63543.20,614,832
63543.20,617,832
63543.20,618,836
63543.20,621,832
63543.20,622,832
63543.20,624,836
63543.20,627,832
63543.20,625,832
63543.20,624,836
63543.20,622,832
63543.20,620,832
63543.21,619,836
63543.21,616,832
63543.21,613,832
63543.21,612,836
63543.21,611,832
63543.21,611,832
63543.21,611,836
63543.21,614,832
63543.21,618,832
63543.21,621,836
63543.21,625,832
63543.21,627,836
63543.21,627,832
63543.21,623,832
63543.21,618,836
63543.21,617,832
63543.22,616,832
63543.22,614,836
63543.22,612,832
63543.22,610,832
63543.22,608,836
63543.22,605,832
63543.22,605,832
63543.22,606,836
63543.22,609,832
63543.22,612,832
63543.22,614,836
63543.22,614,832
63543.22,617,832
63543.22,617,836
63543.22,616,832
63543.22,614,832
63543.24,613,836
63543.24,611,832
63543.24,609,832
63543.24,607,836
63543.24,605,832
63543.24,605,832
63543.24,605,836
63543.24,605,832
63543.24,606,832
63543.24,608,836
63543.24,609,832
63543.24,611,836
63543.24,613,832
63543.24,612,832
63543.24,611,836
63543.24,608,832
63543.25,607,832
63543.25,606,836
63543.25,604,832
63543.25,604,832
63543.25,602,840
63543.25,603,828
63543.25,603,832
63543.25,603,836
63543.25,605,832
63543.25,606,832
63543.25,609,836
63543.25,612,832
63543.25,613,832
63543.25,612,836
63543.25,610,832
63543.25,608,832
63543.26,606,836
63543.26,604,832
63543.26,603,832
63543.26,603,836
63543.26,604,832
63543.26,604,832
63543.26,604,836
63543.26,605,832
63543.26,605,836
63543.26,608,832
63543.26,611,832
63543.26,614,836
63543.26,617,832
63543.26,617,832
63543.26,615,836
63543.26,611,832
63543.28,607,832
63543.28,605,836
63543.28,603,832
63543.28,601,832
63543.28,599,836
63543.28,598,832
63543.28,598,832
63543.28,600,836
63543.28,602,832
63543.28,605,832
63543.28,608,836
63543.28,610,832
63543.28,610,832
63543.28,609,836
63543.28,607,832
63543.28,604,832
63543.29,602,836
63543.29,600,832
63543.29,599,832
63543.29,596,836
63543.29,595,832
63543.29,594,832
63543.29,594,836
63543.29,595,832
63543.29,595,836
63543.29,596,832
63543.29,598,832
63543.29,599,836
63543.29,602,832
63543.29,604,832
63543.29,603,836
63543.29,602,832
63543.30,601,832
63543.30,600,836
63543.30,599,832
63543.30,598,832
63543.30,596,836
63543.30,595,832
63543.30,594,832
63543.30,594,836
63543.30,593,832
63543.30,594,832
63543.30,595,836
63543.30,598,832
63543.30,599,832
63543.30,600,836
63543.30,600,832
63543.30,600,832
63543.32,601,836
63543.32,599,832
63543.32,599,832
63543.32,597,836
63543.32,594,832
63543.32,592,832
63543.32,591,836
63543.32,591,832
63543.32,592,836
63543.32,595,832
63543.32,598,832
63543.32,601,836
63543.32,604,832
63543.32,605,832
63543.32,602,836
63543.32,599,832
63543.33,598,832
63543.33,596,836
63543.33,595,832
63543.33,594,832
63543.33,592,836
63543.33,591,832
63543.33,590,832
63543.33,587,836
63543.33,589,832
63543.33,590,832
63543.33,593,836
63543.33,595,832
63543.33,596,832
63543.33,597,836
63543.33,597,832
63543.33,595,832
63543.35,594,836
63543.35,591,832
63543.35,591,832
63543.35,587,836
63543.35,584,832
63543.35,583,832
63543.35,582,836
63543.35,582,832
63543.35,583,832
63543.35,586,836
63543.35,589,832
63543.35,592,836
63543.35,594,832
63543.35,595,832
63543.35,596,836
63543.35,595,832
63543.36,592,832
63543.36,592,836
63543.36,591,832
63543.36,590,832
63543.36,587,836
63543.36,585,832
63543.36,587,832
63543.36,584,836
63543.36,583,832
63543.36,583,832
63543.36,584,836
63543.36,588,832
63543.36,591,832
63543.36,592,836
63543.36,595,832
63543.36,594,832
63543.37,593,836
63543.37,593,832
63543.37,590,832
63543.37,591,836
63543.37,590,832
63543.37,590,832
63543.37,590,836
63543.37,590,832
63543.37,587,832
63543.37,586,836
63543.37,585,832
63543.37,586,836
63543.37,587,832
63543.37,587,832
63543.37,584,836
63543.37,581,832
63543.39,581,832
63543.39,580,836
63543.39,580,832
63543.39,580,832
63543.39,579,836
63543.39,580,832
63543.39,582,832
63543.39,582,836
63543.39,581,832
63543.39,579,832
63543.39,578,836
63543.39,579,832
63543.39,580,832
63543.39,582,836
63543.39,580,832
63543.39,578,832
63543.40,580,836
63543.40,578,832
63543.40,580,832
63543.40,581,836
63543.40,580,832
63543.40,583,832
63543.40,585,836
63543.40,585,832
63543.40,585,832
63543.40,583,836
63543.40,582,832
63543.40,582,836
63543.40,580,832
63543.40,582,832
63543.40,582,836
63543.40,581,832
63543.41,581,836
63543.41,579,832
63543.41,579,832
63543.41,579,832
63543.41,578,836
63543.41,577,832
63543.41,576,832
63543.41,577,836
63543.41,576,832
63543.41,575,832
63543.41,572,836
63543.41,572,832
63543.41,573,832
63543.41,574,836
63543.41,576,832
63543.41,576,832
63543.42,577,836
63543.42,577,832
63543.42,575,832
63543.42,577,836
63543.42,578,832
63543.42,579,832
63543.42,578,836
63543.42,577,832
63543.42,575,832
63543.42,575,836
63543.42,571,832
63543.42,569,836
63543.42,570,832
63543.42,570,832
63543.42,571,836
63543.42,570,832
63543.44,571,832
63543.44,572,836
63543.44,572,832
63543.44,574,832
63543.44,574,836
63543.44,574,832
63543.44,573,832
63543.44,573,836
63543.44,572,832
63543.44,570,832
63543.44,568,836
63543.44,565,832
63543.44,563,832
63543.44,561,836
63543.44,561,832
63543.44,563,832
63543.45,562,836
63543.45,563,832
63543.45,564,832
63543.45,565,836
63543.45,566,832
63543.45,567,832
63543.45,568,836
63543.45,568,832
63543.45,566,832
63543.45,564,836
63543.45,560,832
63543.45,557,836
63543.45,555,832
63543.45,552,832
63543.45,551,836
63543.45,551,832
63543.47,552,832
63543.47,551,836
63543.47,552,832
63543.47,554,832
63543.47,558,836
63543.47,562,832
63543.47,565,832
63543.47,567,836
63543.47,568,832
63543.47,566,832
63543.47,564,836
63543.47,560,832
63543.47,557,832
63543.47,557,836
63543.47,555,832
63543.47,554,832
63543.48,551,836
63543.48,551,832
63543.48,550,832
63543.48,551,836
63543.48,553,832
63543.48,556,832
63543.48,557,836
63543.48,560,832
63543.48,561,832
63543.48,562,836
63543.48,562,832
63543.48,561,836
63543.48,559,832
63543.48,558,832
63543.48,555,836
63543.48,552,832
63543.49,551,832
63543.49,550,836
63543.49,552,832
63543.49,555,832
63543.49,558,836
63543.49,559,832
63543.49,561,832
63543.49,563,836
63543.49,563,832
63543.49,563,832
63543.49,562,836
63543.49,562,832
63543.49,560,832
63543.49,558,836
63543.49,557,832
63543.49,557,832
63543.50,557,836
63543.50,556,832
63543.50,554,832
63543.50,557,836
63543.50,558,832
63543.50,559,832
63543.50,561,836
63543.50,560,832
63543.50,561,836
63543.50,558,832
63543.50,556,832
63543.50,557,836
63543.50,555,832
63543.50,552,832
63543.50,551,836
63543.50,550,832
63543.52,551,832
63543.52,551,836
63543.52,551,832
63543.52,553,832
63543.52,555,836
63543.52,556,832
63543.52,557,832
63543.52,558,836
63543.52,558,832
63543.52,556,832
63543.52,554,836
63543.52,553,832
63543.52,550,832
63543.52,549,836
63543.52,550,832
63543.52,550,832
63543.53,549,836
63543.53,549,832
63543.53,548,832
63543.53,549,836
63543.53,551,832
63543.53,553,832
63543.53,553,836
63543.53,556,832
63543.53,557,836
63543.53,556,832
63543.53,554,832
63543.53,551,836
63543.53,550,832
63543.53,549,832
63543.53,548,836
63543.53,550,832
63543.54,551,832
63543.54,552,836
63543.54,553,832
63543.54,555,832
63543.54,557,836
63543.54,559,832
63543.54,562,832
63543.54,564,836
63543.54,565,832
63543.54,564,832
63543.54,563,836
63543.54,562,832
63543.54,561,832
63543.54,560,836
63543.54,559,832
63543.54,558,832
63543.56,560,836
63543.56,562,832
63543.56,561,832
63543.56,563,836
63543.56,565,832
63543.56,567,832
63543.56,569,836
63543.56,568,832
63543.56,568,832
63543.56,566,836
63543.56,563,832
63543.56,561,836
63543.56,560,832
63543.56,557,832
63543.56,555,836
63543.56,554,832
63543.57,555,832
63543.57,557,836
63543.57,558,832
63543.57,559,832
63543.57,559,836
63543.57,558,832
63543.57,555,832
63543.57,552,836
63543.57,548,832
63543.57,548,832
63543.57,546,836
63543.57,544,832
63543.57,542,832
63543.57,541,836
63543.57,542,832
63543.57,546,832
63543.58,549,836
63543.58,553,832
63543.58,556,832
63543.58,559,836
63543.58,561,832
63543.58,561,832
63543.58,563,836
63543.58,564,832
63543.58,565,832
63543.58,565,836
63543.58,563,832
63543.58,559,836
63543.58,555,832
63543.58,551,832
63543.58,550,836
63543.58,551,832
63543.59,552,832
63543.59,554,836
63543.59,556,832
63543.59,558,832
63543.59,560,836
63543.59,562,832
63543.59,565,832
63543.59,567,840
63543.59,568,828
63543.59,567,832
63543.59,566,836
63543.59,563,832
63543.59,559,832
63543.59,556,836
63543.59,556,832
63543.59,555,832
63543.61,554,836
63543.61,554,832
63543.61,553,832
63543.61,553,836
63543.61,553,832
63543.61,553,832
63543.61,554,836
63543.61,555,832
63543.61,557,832
63543.61,558,836
63543.61,558,832
63543.61,557,836
63543.61,555,832
63543.61,553,832
63543.61,552,836
63543.61,551,832
63543.62,552,832
63543.62,554,836
63543.62,555,832
63543.62,557,832
63543.62,558,836
63543.62,559,832
63543.62,559,832
63543.62,560,836
63543.62,559,832
63543.62,558,832
63543.62,557,836
63543.62,554,832
63543.62,552,832
63543.62,550,836
63543.62,549,832
63543.62,551,832
63543.64,551,836
63543.64,552,832
63543.64,554,832
63543.64,557,836
63543.64,559,832
63543.64,561,832
63543.64,563,836
63543.64,565,832
63543.64,565,832
63543.64,563,836
63543.64,560,832
63543.64,556,836
63543.64,553,832
63543.64,551,832
63543.64,549,836
63543.64,550,832
63543.65,551,832
63543.65,554,836
63543.65,557,832
63543.65,559,832
63543.65,561,836
63543.65,562,832
63543.65,564,832
63543.65,564,836
63543.65,565,832
63543.65,563,832
63543.65,559,836
63543.65,556,832
63543.65,553,832
63543.65,549,836
63543.65,546,832
63543.65,546,832
63543.66,547,836
63543.66,550,832
63543.66,552,832
63543.66,554,836
63543.66,557,832
63543.66,559,832
63543.66,561,836
63543.66,561,832
63543.66,561,832
63543.66,563,836
63543.66,560,832
63543.66,558,836
63543.66,556,832
63543.66,552,832
63543.66,549,836
63543.66,545,832
63543.68,544,832
63543.68,544,836
63543.68,544,832
63543.68,545,832
63543.68,546,836
63543.68,546,832
63543.68,548,832
63543.68,548,836
63543.68,550,832
63543.68,552,832
63543.68,552,836
63543.68,550,832
63543.68,548,832
63543.68,547,836
63543.68,545,832
63543.68,544,832
63543.69,545,836
63543.69,546,832
63543.69,545,832
63543.69,545,836
63543.69,542,832
63543.69,542,832
63543.69,544,836
63543.69,546,832
63543.69,548,832
63543.69,550,836
63543.69,552,832
63543.69,552,836
63543.69,551,832
63543.69,549,832
63543.69,547,836
63543.69,544,832
63543.70,543,832
63543.70,543,836
63543.70,544,832
63543.70,544,832
63543.70,545,836
63543.70,547,832
63543.70,549,832
63543.70,552,836
63543.70,553,832
63543.70,554,832
63543.70,553,836
63543.70,553,832
63543.70,552,832
63543.70,549,836
63543.70,547,832
63543.70,546,832
63543.72,545,836
63543.72,544,832
63543.72,544,832
63543.72,544,836
63543.72,543,832
63543.72,541,832
63543.72,540,836
63543.72,542,832
63543.72,545,836
63543.72,547,832
63543.72,550,832
63543.72,551,836
63543.72,549,832
63543.72,546,832
63543.72,543,836
63543.72,543,832
63543.73,541,832
63543.73,541,836
63543.73,544,832
63543.73,543,832
63543.73,545,836
63543.73,544,832
63543.73,543,832
63543.73,544,836
63543.73,544,832
63543.73,546,832
63543.73,548,836
63543.73,548,832
63543.73,548,832
63543.73,546,836
63543.73,546,832
63543.73,545,832
63543.75,544,836
63543.75,543,832
63543.75,542,832
63543.75,543,836
63543.75,542,832
63543.75,540,832
63543.75,538,836
63543.75,539,832
63543.75,541,832
63543.75,544,836
63543.75,548,832
63543.75,551,836
63543.75,555,832
63543.75,557,832
63543.75,558,836
63543.75,558,832
63543.76,558,832
63543.76,559,836
63543.76,559,832
63543.76,559,844
63543.76,556,824
63543.76,553,832
63543.76,549,832
63543.76,547,836
63543.76,545,832
63543.76,545,832
63543.76,544,836
63543.76,545,832
63543.76,546,832
63543.76,544,836
63543.76,542,832
63543.76,542,832
63543.77,543,836
63543.77,542,832
63543.77,542,832
63543.77,541,836
63543.77,538,832
63543.77,534,832
63543.77,531,836
63543.77,528,832
63543.77,528,832
63543.77,528,836
63543.77,531,832
63543.77,533,836
63543.77,535,832
63543.77,536,832
63543.77,537,836
63543.77,535,832
63543.78,536,832
63543.78,535,836
63543.78,534,832
63543.78,534,832
63543.78,533,836
63543.78,534,832
63543.78,533,832
63543.78,532,836
63543.78,533,832
63543.78,534,832
63543.78,536,836
63543.78,537,832
63543.78,538,832
63543.78,538,836
63543.78,540,832
63543.78,539,832
63543.80,539,836
63543.80,537,832
63543.80,538,832
63543.80,539,836
63543.80,539,832
63543.80,539,832
63543.80,537,836
63543.80,535,832
63543.80,532,832
63543.80,529,836
63543.80,526,832
63543.80,525,836
63543.80,525,832
63543.80,524,832
63543.80,522,836
63543.80,520,832
63543.81,520,832
63543.81,520,836
63543.81,521,832
63543.81,523,832
63543.81,526,836
63543.81,526,832
63543.81,527,832
63543.81,527,836
63543.81,525,832
63543.81,525,832
63543.81,527,836
63543.81,530,832
63543.81,532,832
63543.81,535,836
63543.81,535,832
63543.81,537,832
63543.82,540,836
63543.82,541,832
63543.82,543,832
63543.82,544,836
63543.82,545,832
63543.82,542,832
63543.82,539,836
63543.82,536,832
63543.82,534,836
63543.82,532,832
63543.82,532,832
63543.82,532,836
63543.82,534,832
63543.82,536,832
63543.82,538,836
63543.82,541,832
63543.84,543,832
63543.84,545,836
63543.84,547,832
63543.84,547,832
63543.84,545,836
63543.84,541,832
63543.84,538,832
63543.84,535,836
63543.84,532,832
63543.84,529,832
63543.84,528,836
63543.84,527,832
63543.84,527,832
63543.84,528,836
63543.84,531,832
63543.84,534,832
63543.85,538,836
63543.85,540,832
63543.85,541,832
63543.85,537,836
63543.85,535,832
63543.85,533,832
63543.85,530,836
63543.85,527,832
63543.85,524,836
63543.85,522,832
63543.85,523,832
63543.85,524,836
63543.85,526,832
63543.85,529,832
63543.85,529,836
63543.85,530,832
63543.86,531,832
63543.86,530,836
63543.86,529,832
63543.86,528,832
63543.86,528,836
63543.86,528,832
63543.86,527,832
63543.86,525,836
63543.86,522,832
63543.86,521,832
63543.86,520,836
63543.86,524,832
63543.86,527,832
63543.86,529,836
63543.86,532,832
63543.86,536,832
63543.88,537,836
63543.88,537,832
63543.88,535,832
63543.88,535,836
63543.88,535,832
63543.88,534,832
63543.88,536,836
63543.88,534,832
63543.88,533,836
63543.88,536,832
63543.88,536,832
63543.88,538,836
63543.88,541,832
63543.88,542,832
63543.88,542,836
63543.88,545,832
63543.89,544,832
63543.89,545,836
63543.89,544,832
63543.89,544,832
63543.89,545,836
63543.89,542,832
63543.89,541,832
63543.89,540,836
63543.89,540,832
63543.89,540,832
63543.89,540,836
63543.89,541,832
63543.89,544,832
63543.89,546,836
63543.89,547,832
63543.89,552,832
63543.91,556,836
63543.91,557,832
63543.91,556,832
63543.91,552,836
63543.91,549,832
63543.91,548,832
63543.91,548,836
63543.91,549,832
63543.91,546,836
63543.91,545,832
63543.91,545,832
63543.91,547,836
63543.91,549,832
63543.91,551,832
63543.91,555,836
63543.91,560,832
63543.92,564,832
63543.92,570,836
63543.92,574,832
63543.92,575,832
63543.92,577,836
63543.92,581,832
63543.92,583,832
63543.92,583,836
63543.92,583,832
63543.92,583,832
63543.92,585,836
63543.92,586,832
63543.92,590,832
63543.92,593,836
63543.92,598,832
63543.92,604,832
63543.93,611,836
63543.93,616,832
63543.93,622,832
63543.93,628,836
63543.93,635,832
63543.93,640,832
63543.93,645,836
63543.93,647,832
63543.93,649,836
63543.93,649,832
63543.93,651,832
63543.93,653,836
63543.93,655,832
63543.93,658,832
63543.93,659,836
63543.93,659,832
63543.94,661,832
63543.94,663,836
63543.94,665,832
63543.94,665,832
63543.94,665,836
63543.94,664,832
63543.94,664,832
63543.94,662,836
63543.94,661,832
63543.94,660,832
63543.94,660,848
63543.94,660,820
63543.94,661,832
63543.94,663,836
63543.94,663,832
63543.94,664,832
63543.95,665,836
63543.95,666,832
63543.95,664,832
63543.95,662,836
63543.95,656,832
63543.95,653,832
63543.95,650,836
63543.95,647,832
63543.95,644,832
63543.95,643,836
63543.95,641,832
63543.95,641,836
63543.95,642,832
63543.95,642,832
63543.95,643,836
63543.95,645,832
63543.97,645,832
63543.97,646,836
63543.97,645,832
63543.97,643,832
63543.97,639,836
63543.97,635,832
63543.97,630,832
63543.97,627,836
63543.97,623,832
63543.97,619,832
63543.97,614,836
63543.97,613,832
63543.97,613,832
63543.97,614,836
63543.97,616,832
63543.97,618,832
63543.98,618,836
63543.98,620,832
63543.98,620,832
63543.98,618,836
63543.98,614,832
63543.98,611,832
63543.98,608,836
63543.98,606,832
63543.98,602,836
63543.98,598,832
63543.98,594,832
63543.98,593,836
63543.98,595,832
63543.98,596,832
63543.98,595,836
63543.98,593,832
63544.00,591,832
63544.00,591,836
63544.00,591,832
63544.00,588,832
63544.00,586,836
63544.00,582,832
63544.00,580,832
63544.00,581,836
63544.00,579,832
63544.00,578,832
63544.00,577,836
63544.00,577,832
63544.00,577,832
63544.00,576,836
63544.00,573,832
63544.00,572,832
63544.01,571,836
63544.01,570,832
63544.01,571,832
63544.01,569,836
63544.01,566,832
63544.01,564,832
63544.01,561,836
63544.01,560,832
63544.01,561,832
63544.01,560,836
63544.01,558,832
63544.01,556,836
63544.01,555,832
63544.01,557,832
63544.01,558,836
63544.01,559,832
63544.02,559,832
63544.02,560,836
63544.02,559,832
63544.02,559,832
63544.02,557,836
63544.02,555,832
63544.02,554,832
63544.02,553,836
63544.02,554,832
63544.02,554,832
63544.02,550,836
63544.02,548,832
63544.02,545,832
63544.02,543,836
63544.02,543,832
63544.02,541,832
63544.04,541,836
63544.04,542,832
63544.04,542,832
63544.04,544,836
63544.04,545,832
63544.04,545,832
63544.04,546,836
63544.04,545,832
63544.04,544,836
63544.04,542,832
63544.04,538,832
63544.04,536,836
63544.04,534,832
63544.04,531,832
63544.04,531,836
63544.04,531,832
63544.05,532,832
63544.05,534,836
63544.05,536,832
63544.05,538,832
63544.05,540,836
63544.05,541,832
63544.05,541,832
63544.05,540,836
63544.05,540,832
63544.05,539,832
63544.05,540,836
63544.05,538,832
63544.05,536,832
63544.05,535,836
63544.05,533,832
63544.05,534,832
63544.06,534,836
63544.06,534,832
63544.06,536,832
63544.06,535,836
63544.06,536,832
63544.06,538,832
63544.06,536,836
63544.06,534,832
63544.06,532,836
63544.06,532,832
63544.06,531,832
63544.06,528,836
63544.06,525,832
63544.06,523,832
63544.06,521,836
63544.06,520,832
63544.08,519,832
63544.08,518,836
63544.08,518,832
63544.08,518,832
63544.08,517,836
63544.08,518,832
63544.08,519,832
63544.08,520,836
63544.08,522,832
63544.08,523,832
63544.08,525,836
63544.08,526,832
63544.08,527,832
63544.08,525,836
63544.08,524,832
63544.08,522,832
63544.09,521,836
63544.09,519,832
63544.09,518,832
63544.09,517,836
63544.09,518,832
63544.09,518,832
63544.09,520,836
63544.09,522,832
63544.09,524,832
63544.09,525,836
63544.09,527,832
63544.09,528,836
63544.09,528,832
63544.09,528,832
63544.09,528,836
63544.09,527,832
63544.11,524,832
63544.11,523,836
63544.11,520,832
63544.11,520,832
63544.11,517,836
63544.11,517,832
63544.11,517,844
63544.11,517,824
63544.11,517,832
63544.11,518,832
63544.11,519,836
63544.11,521,832
63544.11,522,832
63544.11,523,836
63544.11,523,832
63544.11,523,832
63544.12,522,836
63544.12,520,832
63544.12,519,832
63544.12,517,836
63544.12,517,832
63544.12,516,832
63544.12,516,836
63544.12,517,832
63544.12,518,832
63544.12,519,836
63544.12,521,832
63544.12,522,836
63544.12,522,832
63544.12,521,832
63544.12,519,836
63544.12,517,832
63544.13,514,832
63544.13,512,836
63544.13,510,832
63544.13,510,832
63544.13,508,836
63544.13,509,832
63544.13,512,832
63544.13,515,836
63544.13,518,832
63544.13,521,832
63544.13,523,836
63544.13,523,832
63544.13,522,832
63544.13,521,836
63544.13,517,832
63544.13,516,832
63544.14,514,836
63544.14,511,832
63544.14,510,832
63544.14,508,836
63544.14,507,832
63544.14,507,832
63544.14,507,836
63544.14,511,832
63544.14,515,836
63544.14,517,832
63544.14,520,832
63544.14,522,836
63544.14,522,832
63544.14,520,832
63544.14,519,836
63544.14,519,832
63544.16,517,832
63544.16,514,836
63544.16,512,832
63544.16,511,832
63544.16,510,836
63544.16,508,832
63544.16,509,832
63544.16,512,836
63544.16,515,832
63544.16,516,832
63544.16,518,836
63544.16,520,832
63544.16,521,832
63544.16,520,836
63544.16,520,832
63544.16,519,832
63544.17,517,836
63544.17,515,832
63544.17,514,832
63544.17,514,836
63544.17,514,832
63544.17,514,832
63544.17,517,836
63544.17,517,832
63544.17,519,836
63544.17,520,832
63544.17,516,832
63544.17,517,836
63544.17,517,832
63544.17,517,832
63544.17,517,836
63544.17,515,832
63544.18,514,832
63544.18,512,836
63544.18,510,832
63544.18,511,832
63544.18,511,836
63544.18,514,832
63544.18,516,832
63544.18,517,836
63544.18,519,832
63544.18,522,832
63544.18,523,836
63544.18,523,832
63544.18,524,832
63544.18,522,836
63544.18,518,832
63544.18,515,832
63544.20,511,836
63544.20,510,832
63544.20,507,832
63544.20,506,836
63544.20,510,832
63544.20,510,832
63544.20,511,836
63544.20,512,832
63544.20,514,832
63544.20,516,836
63544.20,517,832
63544.20,517,836
63544.20,516,832
63544.20,515,832
63544.20,514,836
63544.20,515,832
63544.21,513,832
63544.21,512,836
63544.21,511,832
63544.21,509,832
63544.21,509,836
63544.21,510,832
63544.21,512,832
63544.21,515,836
63544.21,518,832
63544.21,521,832
63544.21,524,836
63544.21,522,832
63544.21,522,832
63544.21,522,836
63544.21,521,832
63544.21,520,832
63544.23,518,836
63544.23,516,832
63544.23,514,832
63544.23,512,836
63544.23,511,832
63544.23,511,832
63544.23,510,836
63544.23,513,832
63544.23,515,832
63544.23,517,836
63544.23,520,832
63544.23,522,836
63544.23,525,832
63544.23,526,832
63544.23,526,836
63544.23,525,832
63544.24,525,832
63544.24,523,836
63544.24,521,832
63544.24,519,832
63544.24,518,836
63544.24,518,832
63544.24,518,832
63544.24,518,836
63544.24,519,832
63544.24,519,832
63544.24,520,836
63544.24,522,832
63544.24,523,832
63544.24,522,836
63544.24,522,832
63544.24,521,832
63544.25,519,836
63544.25,519,832
63544.25,518,832
63544.25,516,836
63544.25,517,832
63544.25,517,832
63544.25,519,836
63544.25,520,832
63544.25,523,832
63544.25,525,836
63544.25,527,832
63544.25,529,836
63544.25,530,832
63544.25,527,832
63544.25,524,836
63544.25,521,832
63544.27,519,832
63544.27,516,836
63544.27,513,832
63544.27,511,832
63544.27,509,836
63544.27,511,832
63544.27,512,832
63544.27,516,836
63544.27,519,832
63544.27,522,832
63544.27,525,836
63544.27,527,832
63544.27,528,832
63544.27,526,836
63544.27,524,832
63544.27,520,832
63544.28,517,836
63544.28,515,832
63544.28,512,832
63544.28,508,836
63544.28,507,832
63544.28,507,832
63544.28,509,836
63544.28,514,832
63544.28,518,832
63544.28,521,836
63544.28,525,832
63544.28,527,836
63544.28,529,832
63544.28,526,832
63544.28,523,836
63544.28,520,832
63544.29,516,832
63544.29,513,836
63544.29,511,832
63544.29,511,832
63544.29,509,836
63544.29,509,832
63544.29,509,832
63544.29,509,836
63544.29,512,832
63544.29,514,832
63544.29,515,836
63544.29,517,832
63544.29,519,832
63544.29,522,848
63544.29,523,820
63544.29,522,832
63544.31,522,836
63544.31,520,832
63544.31,517,832
63544.31,516,836
63544.31,515,832
63544.31,514,832
63544.31,512,836
63544.31,513,832
63544.31,515,832
63544.31,516,836
63544.31,518,832
63544.31,520,836
63544.31,522,832
63544.31,525,832
63544.31,526,836
63544.31,525,832
63544.32,525,832
63544.32,524,836
63544.32,522,832
63544.32,520,832
63544.32,519,836
63544.32,519,832
63544.32,518,832
63544.32,518,836
63544.32,521,832
63544.32,522,832
63544.32,522,836
63544.32,524,832
63544.32,524,832
63544.32,524,836
63544.32,524,832
63544.32,523,832
63544.33,524,836
63544.33,524,832
63544.33,521,832
63544.33,520,836
63544.33,518,832
63544.33,518,832
63544.33,519,836
63544.33,519,832
63544.33,520,836
63544.33,523,832
63544.33,523,832
63544.33,526,836
63544.33,529,832
63544.33,530,832
63544.33,531,836
63544.33,531,832
63544.34,529,832
63544.34,526,836
63544.34,523,832
63544.34,520,832
63544.34,517,836
63544.34,516,832
63544.34,514,832
63544.34,517,836
63544.34,519,832
63544.34,522,832
63544.34,525,836
63544.34,525,832
63544.34,528,832
63544.34,530,836
63544.34,529,832
63544.34,529,832
63544.36,527,836
63544.36,525,832
63544.36,524,832
63544.36,522,836
63544.36,523,832
63544.36,524,832
63544.36,522,836
63544.36,522,832
63544.36,521,836
63544.36,519,832
63544.36,518,832
63544.36,516,836
63544.36,513,832
63544.36,511,832
63544.36,510,836
63544.36,509,832
63544.37,507,832
63544.37,508,836
63544.37,510,832
63544.37,512,832
63544.37,512,836
63544.37,512,832
63544.37,512,832
63544.37,511,836
63544.37,509,832
63544.37,507,832
63544.37,507,836
63544.37,506,832
63544.37,507,832
63544.37,506,836
63544.37,508,832
63544.37,508,832
63544.39,509,836
63544.39,508,832
63544.39,508,832
63544.39,509,836
63544.39,508,832
63544.39,509,832
63544.39,510,836
63544.39,510,832
63544.39,510,832
63544.39,510,836
63544.39,509,832
63544.39,510,836
63544.39,507,832
63544.39,504,832
63544.39,503,836
63544.39,502,832
63544.40,503,832
63544.40,504,836
63544.40,505,832
63544.40,509,832
63544.40,512,836
63544.40,515,832
63544.40,517,832
63544.40,518,836
63544.40,517,832
63544.40,515,832
63544.40,513,836
63544.40,510,832
63544.40,508,832
63544.40,505,836
63544.40,502,832
63544.40,504,832
63544.41,504,836
63544.41,505,832
63544.41,505,832
63544.41,509,836
63544.41,510,832
63544.41,511,832
63544.41,509,836
63544.41,511,832
63544.41,509,832
63544.41,508,836
63544.41,506,832
63544.41,505,836
63544.41,503,832
63544.41,504,832
63544.41,505,836
63544.41,507,832
63544.43,509,832
63544.43,510,836
63544.43,510,832
63544.43,510,832
63544.43,509,836
63544.43,508,832
63544.43,506,832
63544.43,506,836
63544.43,505,832
63544.43,506,832
63544.43,506,836
63544.43,507,832
63544.43,508,832
63544.43,508,836
63544.43,507,832
63544.43,507,832
63544.44,508,836
63544.44,508,832
63544.44,508,832
63544.44,509,836
63544.44,511,832
63544.44,513,832
63544.44,515,836
63544.44,516,832
63544.44,517,832
63544.44,516,836
63544.44,515,832
63544.44,513,836
63544.44,513,832
63544.44,513,832
63544.44,512,836
63544.44,513,832
63544.45,515,832
63544.45,516,836
63544.45,518,832
63544.45,521,832
63544.45,522,836
63544.45,521,832
63544.45,521,832
63544.45,518,836
63544.45,517,832
63544.45,515,836
63544.45,513,832
63544.45,511,832
63544.45,510,832
63544.45,510,836
63544.45,510,832
63544.45,508,832
63544.46,509,836
63544.46,507,832
63544.46,508,832
63544.46,509,836
63544.46,510,832
63544.46,512,832
63544.46,513,836
63544.46,515,832
63544.46,515,832
63544.46,517,836
63544.46,520,832
63544.46,520,836
63544.46,520,832
63544.46,519,832
63544.46,517,836
63544.46,514,832
63544.48,514,832
63544.48,514,836
63544.48,515,832
63544.48,516,832
63544.48,518,836
63544.48,520,832
63544.48,522,832
63544.48,524,836
63544.48,525,832
63544.48,524,832
63544.48,523,836
63544.48,521,832
63544.48,517,832
63544.48,514,836
63544.48,511,832
63544.48,510,832
63544.49,509,836
63544.49,511,832
63544.49,513,832
63544.49,515,836
63544.49,516,832
63544.49,518,832
63544.49,520,836
63544.49,521,832
63544.49,520,836
63544.49,519,832
63544.49,518,832
63544.49,517,836
63544.49,514,832
63544.49,515,832
63544.49,515,836
63544.49,517,832
63544.50,519,832
63544.50,519,836
63544.50,522,832
63544.50,521,832
63544.50,522,836
63544.50,522,832
63544.50,520,832
63544.50,519,836
63544.50,516,832
63544.50,512,832
63544.50,511,836
63544.50,509,832
63544.50,509,832
63544.50,508,836
63544.50,507,832
63544.50,507,832
63544.52,508,836
63544.52,508,832
63544.52,511,832
63544.52,516,836
63544.52,518,832
63544.52,520,832
63544.52,521,836
63544.52,523,832
63544.52,524,832
63544.52,523,836
63544.52,523,832
63544.52,521,836
63544.52,519,832
63544.52,516,832
63544.52,513,836
63544.52,511,832
63544.53,511,832
63544.53,512,836
63544.53,515,832
63544.53,517,832
63544.53,519,836
63544.53,521,832
63544.53,520,832
63544.53,521,836
63544.53,520,832
63544.53,520,832
63544.53,519,836
63544.53,518,832
63544.53,517,832
63544.53,515,836
63544.53,516,832
63544.53,516,832
63544.55,517,836
63544.55,517,832
63544.55,517,832
63544.55,517,836
63544.55,517,832
63544.55,517,832
63544.55,518,836
63544.55,517,832
63544.55,517,836
63544.55,518,832
63544.55,518,832
63544.55,517,836
63544.55,518,832
63544.55,517,832
63544.55,516,836
63544.55,516,832
63544.56,515,832
63544.56,514,836
63544.56,513,832
63544.56,514,832
63544.56,515,836
63544.56,515,832
63544.56,516,832
63544.56,519,836
63544.56,521,832
63544.56,524,832
63544.56,524,836
63544.56,523,832
63544.56,521,832
63544.56,520,836
63544.56,518,832
63544.56,515,832
63544.57,513,836
63544.57,511,832
63544.57,511,832
63544.57,513,836
63544.57,516,832
63544.57,518,832
63544.57,520,836
63544.57,520,832
63544.57,518,836
63544.57,516,832
63544.57,515,832
63544.57,513,836
63544.57,512,832
63544.57,511,832
63544.57,510,836
63544.57,510,832
63544.59,513,832
63544.59,515,836
63544.59,518,832
63544.59,519,832
63544.59,520,836
63544.59,522,832
63544.59,524,832
63544.59,524,836
63544.59,525,832
63544.59,525,832
63544.59,524,836
63544.59,523,832
63544.59,520,832
63544.59,519,836
63544.59,517,832
63544.59,515,832
63544.60,514,836
63544.60,512,832
63544.60,513,832
63544.60,514,836
63544.60,516,832
63544.60,518,832
63544.60,522,836
63544.60,523,832
63544.60,523,832
63544.60,522,836
63544.60,522,832
63544.60,521,836
63544.60,518,832
63544.60,517,832
63544.60,515,836
63544.60,513,832
63544.61,513,832
63544.61,511,836
63544.61,511,832
63544.61,513,832
63544.61,515,836
63544.61,517,832
63544.61,519,832
63544.61,521,836
63544.61,523,832
63544.61,522,832
63544.61,521,836
63544.61,518,832
63544.61,516,832
63544.61,515,836
63544.61,514,832
63544.61,514,832
63544.62,517,836
63544.62,518,832
63544.62,519,832
63544.62,520,836
63544.62,523,832
63544.62,524,832
63544.62,526,836
63544.62,525,832
63544.62,526,836
63544.62,525,832
63544.62,525,832
63544.62,524,836
63544.62,524,832
63544.62,523,832
63544.62,522,836
63544.62,520,832
63544.64,520,832
63544.64,522,836
63544.64,521,832
63544.64,521,832
63544.64,519,836
63544.64,518,832
63544.64,519,832
63544.64,520,836
63544.64,520,832
63544.64,520,832
63544.64,518,836
63544.64,517,832
63544.64,517,832
63544.64,516,836
63544.64,517,832
63544.64,516,832
63544.65,516,848
63544.65,516,820
63544.65,516,832
63544.65,516,836
63544.65,520,832
63544.65,521,832
63544.65,523,836
63544.65,526,832
63544.65,527,832
63544.65,527,836
63544.65,529,832
63544.65,526,836
63544.65,523,832
63544.65,519,832
63544.65,515,836
63544.65,513,832
63544.66,513,832
63544.66,511,836
63544.66,512,832
63544.66,514,832
63544.66,515,836
63544.66,517,832
63544.66,517,832
63544.66,519,836
63544.66,521,832
63544.66,520,832
63544.66,520,836
63544.66,518,832
63544.66,516,832
63544.66,515,836
63544.66,513,832
63544.66,511,832
63544.68,511,836
63544.68,510,832
63544.68,511,832
63544.68,511,836
63544.68,512,832
63544.68,513,832
63544.68,513,836
63544.68,513,832
63544.68,512,836
63544.68,514,832
63544.68,514,832
63544.68,514,836
63544.68,513,832
63544.68,514,832
63544.68,517,836
63544.68,518,832
63544.69,519,832
63544.69,521,836
63544.69,517,832
63544.69,515,832
63544.69,511,836
63544.69,508,832
63544.69,505,832
63544.69,504,836
63544.69,504,832
63544.69,508,832
63544.69,512,836
63544.69,515,832
63544.69,519,832
63544.69,521,836
63544.69,522,832
63544.69,521,832
63544.70,520,836
63544.70,518,832
63544.70,516,832
63544.70,514,836
63544.70,513,832
63544.70,512,832
63544.70,511,836
63544.70,511,832
63544.70,512,832
63544.70,514,836
63544.70,517,832
63544.70,517,836
63544.70,517,832
63544.70,514,832
63544.70,512,836
63544.70,513,832
63544.72,514,832
63544.72,514,836
63544.72,516,832
63544.72,516,832
63544.72,518,836
63544.72,517,832
63544.72,517,832
63544.72,515,836
63544.72,515,832
63544.72,513,832
63544.72,512,836
63544.72,513,832
63544.72,513,832
63544.72,514,836
63544.72,517,832
63544.72,519,832
63544.73,521,836
63544.73,523,832
63544.73,525,832
63544.73,526,836
63544.73,526,832
63544.73,521,832
63544.73,518,836
63544.73,514,832
63544.73,509,836
63544.73,506,832
63544.73,504,832
63544.73,503,836
63544.73,505,832
63544.73,506,832
63544.73,507,836
63544.73,508,832
63544.75,509,832
63544.75,509,836
63544.75,510,832
63544.75,511,832
63544.75,510,836
63544.75,510,832
63544.75,508,832
63544.75,505,836
63544.75,503,832
63544.75,501,832
63544.75,501,836
63544.75,504,832
63544.75,505,832
63544.75,509,836
63544.75,513,832
63544.75,515,832
63544.76,517,836
63544.76,518,832
63544.76,518,832
63544.76,516,836
63544.76,514,832
63544.76,511,832
63544.76,510,836
63544.76,510,832
63544.76,509,832
63544.76,507,836
63544.76,507,832
63544.76,506,836
63544.76,507,832
63544.76,509,832
63544.76,510,836
63544.76,512,832
63544.77,513,832
63544.77,513,836
63544.77,514,832
63544.77,512,832
63544.77,511,836
63544.77,508,832
63544.77,507,832
63544.77,507,836
63544.77,506,832
63544.77,505,832
63544.77,507,836
63544.77,507,832
63544.77,510,832
63544.77,511,836
63544.77,513,832
63544.77,516,832
63544.79,518,836
63544.79,521,832
63544.79,524,832
63544.79,523,836
63544.79,525,832
63544.79,524,832
63544.79,523,836
63544.79,523,832
63544.79,522,836
63544.79,522,832
63544.79,524,832
63544.79,522,836
63544.79,522,832
63544.79,520,832
63544.79,519,836
63544.79,520,832
63544.80,519,832
63544.80,518,836
63544.80,519,832
63544.80,521,832
63544.80,520,836
63544.80,521,832
63544.80,521,832
63544.80,521,836
63544.80,522,832
63544.80,520,832
63544.80,518,836
63544.80,516,832
63544.80,514,836
63544.80,515,832
63544.80,518,832
63544.80,520,832
63544.81,523,836
63544.81,525,832
63544.81,525,832
63544.81,526,836
63544.81,528,832
63544.81,529,832
63544.81,527,836
63544.81,526,832
63544.81,526,832
63544.81,526,836
63544.81,524,832
63544.81,524,836
63544.81,524,832
63544.81,525,832
63544.81,527,836
63544.81,528,832
63544.83,526,832
63544.83,526,836
63544.83,524,832
63544.83,523,832
63544.83,523,836
63544.83,521,832
63544.83,520,832
63544.83,519,836
63544.83,518,832
63544.83,519,832
63544.83,520,836
63544.83,521,832
63544.83,523,832
63544.83,526,836
63544.83,528,832
63544.83,530,832
63544.84,531,836
63544.84,533,832
63544.84,530,832
63544.84,527,836
63544.84,525,832
63544.84,522,832
63544.84,520,836
63544.84,517,832
63544.84,516,832
63544.84,517,836
63544.84,518,832
63544.84,520,836
63544.84,523,832
63544.84,526,832
63544.84,529,836
63544.84,532,832
63544.85,534,832
63544.85,535,836
63544.85,536,832
63544.85,535,832
63544.85,535,836
63544.85,534,832
63544.85,533,832
63544.85,534,836
63544.85,534,832
63544.85,535,832
63544.85,534,836
63544.85,536,832
63544.85,535,832
63544.85,532,836
63544.85,529,832
63544.85,527,832
63544.86,527,836
63544.86,526,832
63544.86,525,832
63544.86,525,836
63544.86,525,832
63544.86,525,832
63544.86,525,836
63544.86,526,832
63544.86,526,832
63544.86,526,836
63544.86,528,832
63544.86,527,836
63544.86,526,832
63544.86,526,832
63544.86,526,836
63544.86,528,832
63544.88,528,832
63544.88,527,836
63544.88,526,832
63544.88,526,832
63544.88,526,836
63544.88,527,832
63544.88,529,832
63544.88,532,836
63544.88,533,832
63544.88,531,832
63544.88,528,836
63544.88,526,832
63544.88,524,832
63544.88,524,836
63544.88,523,832
63544.88,523,832
63544.89,525,836
63544.89,527,832
63544.89,529,832
63544.89,530,836
63544.89,529,832
63544.89,528,832
63544.89,526,836
63544.89,524,832
63544.89,521,832
63544.89,519,836
63544.89,517,832
63544.89,518,836
63544.89,519,832
63544.89,520,832
63544.89,521,836
63544.89,522,832
63544.90,525,832
63544.90,526,836
63544.90,527,832
63544.90,526,832
63544.90,524,836
63544.90,522,832
63544.90,521,832
63544.90,520,836
63544.90,518,832
63544.90,515,832
63544.90,513,836
63544.90,513,832
63544.90,514,832
63544.90,515,836
63544.90,519,832
63544.90,522,832
63544.92,526,836
63544.92,529,832
63544.92,531,832
63544.92,530,836
63544.92,529,832
63544.92,529,832
63544.92,526,836
63544.92,524,832
63544.92,522,836
63544.92,521,832
63544.92,519,832
63544.92,520,836
63544.92,521,832
63544.92,522,832
63544.92,523,836
63544.92,522,832
63544.93,522,832
63544.93,524,836
63544.93,525,832
63544.93,529,832
63544.93,528,836
63544.93,526,832
63544.93,524,832
63544.93,523,836
63544.93,521,832
63544.93,521,832
63544.93,522,836
63544.93,523,832
63544.93,524,832
63544.93,524,836
63544.93,523,832
63544.93,523,832
63544.95,521,836
63544.95,520,832
63544.95,522,832
63544.95,522,836
63544.95,521,832
63544.95,521,832
63544.95,519,836
63544.95,520,832
63544.95,521,836
63544.95,520,832
63544.95,521,832
63544.95,519,836
63544.95,519,832
63544.95,521,832
63544.95,522,836
63544.95,524,832
63544.96,526,832
63544.96,525,836
63544.96,526,832
63544.96,526,832
63544.96,523,836
63544.96,521,832
63544.96,518,832
63544.96,516,836
63544.96,515,832
63544.96,513,832
63544.96,512,836
63544.96,514,832
63544.96,516,832
63544.96,518,836
63544.96,521,832
63544.96,522,832
63544.97,521,836
63544.97,523,832
63544.97,523,832
63544.97,525,836
63544.97,526,832
63544.97,525,832
63544.97,523,836
63544.97,519,832
63544.97,517,836
63544.97,517,832
63544.97,517,832
63544.97,518,836
63544.97,517,832
63544.97,516,832
63544.97,515,836
63544.97,515,832
63544.98,514,832
63544.98,514,836
63544.98,513,832
63544.98,514,832
63544.98,514,836
63544.98,513,832
63544.98,510,832
63544.98,510,836
63544.98,509,832
63544.98,509,832
63544.98,510,836
63544.98,511,832
63544.98,511,832
63544.98,511,836
63544.98,510,832
63544.98,508,832
63545.00,508,836
63545.00,506,832
63545.00,506,832
63545.00,508,840
63545.00,508,828
63545.00,512,832
63545.00,514,836
63545.00,515,832
63545.00,517,832
63545.00,518,836
63545.00,518,832
63545.00,519,836
63545.00,519,832
63545.00,519,832
63545.00,516,836
63545.00,514,832
63545.01,511,832
63545.01,507,836
63545.01,506,832
63545.01,505,832
63545.01,509,836
63545.01,511,832
63545.01,514,832
63545.01,516,836
63545.01,516,832
63545.01,518,832
63545.01,517,836
63545.01,517,832
63545.01,515,832
63545.01,514,836
63545.01,511,832
63545.01,508,832
63545.02,507,836
63545.02,506,832
63545.02,506,832
63545.02,504,836
63545.02,505,832
63545.02,506,832
63545.02,507,836
63545.02,507,832
63545.02,508,832
63545.02,509,836
63545.02,507,832
63545.02,505,836
63545.02,503,832
63545.02,502,832
63545.02,503,836
63545.02,504,832
63545.04,505,832
63545.04,507,836
63545.04,508,832
63545.04,512,832
63545.04,513,836
63545.04,517,832
63545.04,518,832
63545.04,519,836
63545.04,518,832
63545.04,517,832
63545.04,514,836
63545.04,514,832
63545.04,514,832
63545.04,516,836
63545.04,516,832
63545.04,515,832
63545.05,516,836
63545.05,516,832
63545.05,514,832
63545.05,515,836
63545.05,515,832
63545.05,515,832
63545.05,513,836
63545.05,513,832
63545.05,510,836
63545.05,510,832
63545.05,510,832
63545.05,514,836
63545.05,516,832
63545.05,518,832
63545.05,519,836
63545.05,519,832
63545.07,518,832
63545.07,518,836
63545.07,516,832
63545.07,515,832
63545.07,514,836
63545.07,513,832
63545.07,514,832
63545.07,514,836
63545.07,515,832
63545.07,517,832
63545.07,519,836
63545.07,520,832
63545.07,519,832
63545.07,518,836
63545.07,519,832
63545.07,518,832
63545.08,516,836
63545.08,513,832
63545.08,510,832
63545.08,508,836
63545.08,506,832
63545.08,506,832
63545.08,507,836
63545.08,510,832
63545.08,513,832
63545.08,516,836
63545.08,519,832
63545.08,521,836
63545.08,523,832
63545.08,521,832
63545.08,520,836
63545.08,519,832
63545.09,519,832
63545.09,518,836
63545.09,518,832
63545.09,518,832
63545.09,517,836
63545.09,518,832
63545.09,517,832
63545.09,520,836
63545.09,522,832
63545.09,523,832
63545.09,524,836
63545.09,524,832
63545.09,525,832
63545.09,523,836
63545.09,520,832
63545.09,518,832
63545.11,516,836
63545.11,514,832
63545.11,509,832
63545.11,507,836
63545.11,506,832
63545.11,506,832
63545.11,507,836
63545.11,510,832
63545.11,512,832
63545.11,514,836
63545.11,515,832
63545.11,517,836
63545.11,517,832
63545.11,518,832
63545.11,518,836
63545.11,519,832
63545.12,522,832
63545.12,520,836
63545.12,519,832
63545.12,520,832
63545.12,519,836
63545.12,520,832
63545.12,519,832
63545.12,518,836
63545.12,517,832
63545.12,517,832
63545.12,516,836
63545.12,516,832
63545.12,514,832
63545.12,511,836
63545.12,509,832
63545.12,508,832
63545.13,509,836
63545.13,508,832
63545.13,507,832
63545.13,508,836
63545.13,507,832
63545.13,508,832
63545.13,510,836
63545.13,509,832
63545.13,512,832
63545.13,515,836
63545.13,518,832
63545.13,521,836
63545.13,522,832
63545.13,521,832
63545.13,520,836
63545.13,519,832
63545.15,520,832
63545.15,520,836
63545.15,518,832
63545.15,516,832
63545.15,514,836
63545.15,512,832
63545.15,514,832
63545.15,515,836
63545.15,517,832
63545.15,521,832
63545.15,522,836
63545.15,524,832
63545.15,523,832
63545.15,524,836
63545.15,523,832
63545.15,521,836
63545.16,520,832
63545.16,519,832
63545.16,516,832
63545.16,513,836
63545.16,509,832
63545.16,506,832
63545.16,504,836
63545.16,502,832
63545.16,503,836
63545.16,502,832
63545.16,505,832
63545.16,508,836
63545.16,511,832
63545.16,514,832
63545.16,513,836
63545.16,515,832
63545.17,515,832
63545.17,515,836
63545.17,514,832
63545.17,514,832
63545.17,513,836
63545.17,511,832
63545.17,511,832
63545.17,512,836
63545.17,513,832
63545.17,514,832
63545.17,516,836
63545.17,519,832
63545.17,520,832
63545.17,521,836
63545.17,519,832
63545.17,517,832
63545.18,516,836
63545.18,515,832
63545.18,516,832
63545.18,516,836
63545.18,516,832
63545.18,514,832
63545.18,514,836
63545.18,512,832
63545.18,512,836
63545.18,512,832
63545.18,512,832
63545.18,514,836
63545.18,515,832
63545.18,516,832
63545.18,514,836
63545.18,511,832
63545.20,511,832
63545.20,510,836
63545.20,510,832
63545.20,510,832
63545.20,509,836
63545.20,508,832
63545.20,511,832
63545.20,514,836
63545.20,518,832
63545.20,522,832
63545.20,524,836
63545.20,527,832
63545.20,529,832
63545.20,530,836
63545.20,529,832
63545.20,526,832
63545.21,523,836
63545.21,522,832
63545.21,518,832
63545.21,517,836
63545.21,514,832
63545.21,514,832
63545.21,516,836
63545.21,518,832
63545.21,520,832
63545.21,520,836
63545.21,518,832
63545.21,519,836
63545.21,520,832
63545.21,520,832
63545.21,519,836
63545.21,518,832
63545.23,517,832
63545.23,517,836
63545.23,515,832
63545.23,515,832
63545.23,516,836
63545.23,516,832
63545.23,517,832
63545.23,518,836
63545.23,521,832
63545.23,523,832
63545.23,523,836
63545.23,525,832
63545.23,527,832
63545.23,527,836
63545.23,526,832
63545.23,523,832
63545.24,520,836
63545.24,517,832
63545.24,516,832
63545.24,516,836
63545.24,518,832
63545.24,518,832
63545.24,518,836
63545.24,519,832
63545.24,518,832
63545.24,518,836
63545.24,519,832
63545.24,519,836
63545.24,518,832
63545.24,519,832
63545.24,519,836
63545.24,518,832
63545.25,517,832
63545.25,516,836
63545.25,518,832
63545.25,516,832
63545.25,517,836
63545.25,516,832
63545.25,515,832
63545.25,516,836
63545.25,517,832
63545.25,518,832
63545.25,516,836
63545.25,517,832
63545.25,516,832
63545.25,517,836
63545.25,518,832
63545.25,518,832
63545.27,519,836
63545.27,517,832
63545.27,516,832
63545.27,519,836
63545.27,518,832
63545.27,518,832
63545.27,519,836
63545.27,519,832
63545.27,520,832
63545.27,517,836
63545.27,516,832
63545.27,514,836
63545.27,514,832
63545.27,518,832
63545.27,520,836
63545.27,521,832
63545.28,523,832
63545.28,521,836
63545.28,520,832
63545.28,519,832
63545.28,518,836
63545.28,518,832
63545.28,516,832
63545.28,515,836
63545.28,512,832
63545.28,511,832
63545.28,512,836
63545.28,511,832
63545.28,513,832
63545.28,516,836
63545.28,517,832
63545.28,520,832
63545.29,520,836
63545.29,519,832
63545.29,517,832
63545.29,513,836
63545.29,510,832
63545.29,509,832
63545.29,508,836
63545.29,508,832
63545.29,508,832
63545.29,508,836
63545.29,509,832
63545.29,510,836
63545.29,512,832
63545.29,513,832
63545.29,513,836
63545.29,513,832
63545.31,514,832
63545.31,513,836
63545.31,511,832
63545.31,508,832
63545.31,506,836
63545.31,505,832
63545.31,502,832
63545.31,501,836
63545.31,501,832
63545.31,501,832
63545.31,502,836
63545.31,502,832
63545.31,503,832
63545.31,505,836
63545.31,506,832
63545.31,507,832
63545.32,506,836
63545.32,507,832
63545.32,506,832
63545.32,504,836
63545.32,503,832
63545.32,501,832
63545.32,502,836
63545.32,504,832
63545.32,504,836
63545.32,507,832
63545.32,507,832
63545.32,508,836
63545.32,506,832
63545.32,506,832
63545.32,503,836
63545.32,501,832
63545.33,503,832
63545.33,505,836
63545.33,508,832
63545.33,508,832
63545.33,510,836
63545.33,512,832
63545.33,512,832
63545.33,514,836
63545.33,516,832
63545.33,515,832
63545.33,513,836
63545.33,511,832
63545.33,507,832
63545.33,507,836
63545.33,505,832
63545.33,505,832
63545.34,503,836
63545.34,503,832
63545.34,504,832
63545.34,503,836
63545.34,503,832
63545.34,503,832
63545.34,504,840
63545.34,504,828
63545.34,506,836
63545.34,505,832
63545.34,504,832
63545.34,502,836
63545.34,502,832
63545.34,503,832
63545.34,503,836
63545.34,502,832
63545.36,504,832
63545.36,505,836
63545.36,508,832
63545.36,512,832
63545.36,512,836
63545.36,511,832
63545.36,509,832
63545.36,509,836
63545.36,508,832
63545.36,510,832
63545.36,510,836
63545.36,509,832
63545.36,508,832
63545.36,508,836
63545.36,508,832
63545.36,508,832
63545.37,507,836
63545.37,510,832
63545.37,512,832
63545.37,512,836
63545.37,512,832
63545.37,512,832
63545.37,512,836
63545.37,512,832
63545.37,511,832
63545.37,511,836
63545.37,512,832
63545.37,512,836
63545.37,511,832
63545.37,509,832
63545.37,509,836
63545.37,510,832
63545.39,508,832
63545.39,508,836
63545.39,509,832
63545.39,511,832
63545.39,513,836
63545.39,515,832
63545.39,513,832
63545.39,513,836
63545.39,512,832
63545.39,513,832
63545.39,516,836
63545.39,516,832
63545.39,515,832
63545.39,515,836
63545.39,514,832
63545.39,512,832
63545.40,512,836
63545.40,513,832
63545.40,517,832
63545.40,520,836
63545.40,524,832
63545.40,526,832
63545.40,527,836
63545.40,528,832
63545.40,528,832
63545.40,529,836
63545.40,528,832
63545.40,527,836
63545.40,523,832
63545.40,521,832
63545.40,519,836
63545.40,517,832
63545.41,516,832
63545.41,515,836
63545.41,517,832
63545.41,519,832
63545.41,520,836
63545.41,523,832
63545.41,526,832
63545.41,528,836
63545.41,527,832
63545.41,525,832
63545.41,522,836
63545.41,520,832
63545.41,518,832
63545.41,515,836
63545.41,514,832
63545.41,512,832
63545.43,511,836
63545.43,513,832
63545.43,512,832
63545.43,515,836
63545.43,517,832
63545.43,518,832
63545.43,518,836
63545.43,516,832
63545.43,515,832
63545.43,516,836
63545.43,517,832
63545.43,518,836
63545.43,519,832
63545.43,519,832
63545.43,519,836
63545.43,519,832
63545.44,519,832
63545.44,522,836
63545.44,522,832
63545.44,523,832
63545.44,526,836
63545.44,525,832
63545.44,526,832
63545.44,526,836
63545.44,523,832
63545.44,523,832
63545.44,520,836
63545.44,518,832
63545.44,519,832
63545.44,517,836
63545.44,516,832
63545.44,516,832
63545.45,516,836
63545.45,517,832
63545.45,518,832
63545.45,518,836
63545.45,520,832
63545.45,523,832
63545.45,525,836
63545.45,526,832
63545.45,524,832
63545.45,523,836
63545.45,522,832
63545.45,521,836
63545.45,522,832
63545.45,523,832
63545.45,520,836
63545.45,518,832
63545.47,517,832
63545.47,515,836
63545.47,516,832
63545.47,517,832
63545.47,519,836
63545.47,520,832
63545.47,521,832
63545.47,524,836
63545.47,525,832
63545.47,526,832
63545.47,525,836
63545.47,525,832
63545.47,525,832
63545.47,522,836
63545.47,520,832
63545.47,518,832
63545.48,515,836
63545.48,514,832
63545.48,514,832
63545.48,513,836
63545.48,513,832
63545.48,514,832
63545.48,514,836
63545.48,516,832
63545.48,517,836
63545.48,516,832
63545.48,516,832
63545.48,514,836
63545.48,514,832
63545.48,515,832
63545.48,515,836
63545.48,516,832
63545.49,515,832
63545.49,516,836
63545.49,518,832
63545.49,518,832
63545.49,520,836
63545.49,521,832
63545.49,521,832
63545.49,522,836
63545.49,519,832
63545.49,516,832
63545.49,515,836
63545.49,515,832
63545.49,515,832
63545.49,516,836
63545.49,519,832
63545.49,520,832
63545.50,522,836
63545.50,522,832
63545.50,525,836
63545.50,528,832
63545.50,531,832
63545.50,531,832
63545.50,532,836
63545.50,531,832
63545.50,530,832
63545.50,529,836
63545.50,527,832
63545.50,526,836
63545.50,525,832
63545.50,524,832
63545.50,526,836
63545.50,526,832
63545.52,527,832
63545.52,529,836
63545.52,529,832
63545.52,530,832
63545.52,530,836
63545.52,529,832
63545.52,530,832
63545.52,531,836
63545.52,531,832
63545.52,531,832
63545.52,530,836
63545.52,528,832
63545.52,527,832
63545.52,525,836
63545.52,525,832
63545.52,525,832
63545.53,524,836
63545.53,520,832
63545.53,517,832
63545.53,515,836
63545.53,516,832
63545.53,516,832
63545.53,516,836
63545.53,518,832
63545.53,518,832
63545.53,519,836
63545.53,520,832
63545.53,520,836
63545.53,520,832
63545.53,520,832
63545.53,519,836
63545.53,518,832
63545.54,518,832
63545.54,515,836
63545.54,515,832
63545.54,515,832
63545.54,518,836
63545.54,521,832
63545.54,524,832
63545.54,527,836
63545.54,529,832
63545.54,532,832
63545.54,535,836
63545.54,535,832
63545.54,533,832
63545.54,533,836
63545.54,531,832
63545.54,531,832
63545.56,532,836
63545.56,533,832
63545.56,532,832
63545.56,531,836
63545.56,532,832
63545.56,534,832
63545.56,533,836
63545.56,532,832
63545.56,534,836
63545.56,534,832
63545.56,531,832
63545.56,528,836
63545.56,526,832
63545.56,523,832
63545.56,522,836
63545.56,521,832
63545.57,523,832
63545.57,525,836
63545.57,525,832
63545.57,527,832
63545.57,527,836
63545.57,529,832
63545.57,531,832
63545.57,532,836
63545.57,531,832
63545.57,529,832
63545.57,528,836
63545.57,525,832
63545.57,525,832
63545.57,524,836
63545.57,526,832
63545.57,525,832
63545.59,527,836
63545.59,529,832
63545.59,530,832
63545.59,530,836
63545.59,530,832
63545.59,530,832
63545.59,527,836
63545.59,524,832
63545.59,521,832
63545.59,518,836
63545.59,518,832
63545.59,516,836
63545.59,515,832
63545.59,512,832
63545.59,509,836
63545.59,510,832
63545.60,510,832
63545.60,512,836
63545.60,514,832
63545.60,516,832
63545.60,517,836
63545.60,515,832
63545.60,515,832
63545.60,515,836
63545.60,514,832
63545.60,515,832
63545.60,516,836
63545.60,517,832
63545.60,518,832
63545.60,517,836
63545.60,516,832
63545.60,517,832
63545.61,518,836
63545.61,519,832
63545.61,518,832
63545.61,517,836
63545.61,517,832
63545.61,517,832
63545.61,518,836
63545.61,522,832
63545.61,523,832
63545.61,524,836
63545.61,525,832
63545.61,525,836
63545.61,526,832
63545.61,524,832
63545.61,523,836
63545.61,520,832
63545.63,517,832
63545.63,514,836
63545.63,513,832
63545.63,514,832
63545.63,514,836
63545.63,515,832
63545.63,515,832
63545.63,516,836
63545.63,517,832
63545.63,518,832
63545.63,518,836
63545.63,518,832
63545.63,518,832
63545.63,519,836
63545.63,517,832
63545.63,517,832
63545.64,517,836
63545.64,518,832
63545.64,519,832
63545.64,522,836
63545.64,521,832
63545.64,522,832
63545.64,522,836
63545.64,521,832
63545.64,520,832
63545.64,520,836
63545.64,518,832
63545.64,516,836
63545.64,513,832
63545.64,511,832
63545.64,512,836
63545.64,513,832
63545.65,515,832
63545.65,517,836
63545.65,519,832
63545.65,521,832
63545.65,521,836
63545.65,520,832
63545.65,521,832
63545.65,518,836
63545.65,517,832
63545.65,516,832
63545.65,514,836
63545.65,513,832
63545.65,514,832
63545.65,516,836
63545.65,518,832
63545.65,519,832
63545.67,518,836
63545.67,517,832
63545.67,518,832
63545.67,521,836
63545.67,523,832
63545.67,523,832
63545.67,522,836
63545.67,520,832
63545.67,519,836
63545.67,518,832
63545.67,519,832
63545.67,518,836
63545.67,519,832
63545.67,521,832
63545.67,521,836
63545.67,523,832
63545.68,521,832
63545.68,520,836
63545.68,521,832
63545.68,520,832
63545.68,520,836
63545.68,519,832
63545.68,518,832
63545.68,517,836
63545.68,518,832
63545.68,520,832
63545.68,521,836
63545.68,522,832
63545.68,523,832
63545.68,524,836
63545.68,525,832
63545.68,527,832
63545.69,528,836
63545.69,527,832
63545.69,527,832
63545.69,526,836
63545.69,526,832
63545.69,527,832
63545.69,526,836
63545.69,527,832
63545.69,527,836
63545.69,528,836
63545.69,529,828
63545.69,529,836
63545.69,528,832
63545.69,528,832
63545.69,528,836
63545.69,529,832
63545.71,528,832
63545.71,524,836
63545.71,522,832
63545.71,522,832
63545.71,521,836
63545.71,523,832
63545.71,526,832
63545.71,526,836
63545.71,526,832
63545.71,525,832
63545.71,525,836
63545.71,524,832
63545.71,523,832
63545.71,521,836
63545.71,524,832
63545.71,525,832
63545.72,527,836
63545.72,528,832
63545.72,527,832
63545.72,527,836
63545.72,526,832
63545.72,525,832
63545.72,524,836
63545.72,523,832
63545.72,519,836
63545.72,518,832
63545.72,515,832
63545.72,515,836
63545.72,516,832
63545.72,518,832
63545.72,520,836
63545.72,521,832
63545.73,523,832
63545.73,524,836
63545.73,525,832
63545.73,525,832
63545.73,526,836
63545.73,524,832
63545.73,523,832
63545.73,519,836
63545.73,517,832
63545.73,516,832
63545.73,516,836
63545.73,517,832
63545.73,518,832
63545.73,518,836
63545.73,519,832
63545.73,522,832
63545.74,523,836
63545.74,525,832
63545.74,525,832
63545.74,526,836
63545.74,525,832
63545.74,522,832
63545.74,521,836
63545.74,522,832
63545.74,522,832
63545.74,524,836
63545.74,523,832
63545.74,522,836
63545.74,524,832
63545.74,525,832
63545.74,529,836
63545.74,531,832
63545.76,533,832
63545.76,531,836
63545.76,529,832
63545.76,525,832
63545.76,522,836
63545.76,519,832
63545.76,517,832
63545.76,517,836
63545.76,518,832
63545.76,519,832
63545.76,519,836
63545.76,519,832
63545.76,519,832
63545.76,522,836
63545.76,524,832
63545.76,525,832
63545.77,527,836
63545.77,524,832
63545.77,523,832
63545.77,520,836
63545.77,521,832
63545.77,522,832
63545.77,521,836
63545.77,522,832
63545.77,520,832
63545.77,519,836
63545.77,519,832
63545.77,519,836
63545.77,521,832
63545.77,520,832
63545.77,521,836
63545.77,520,832
63545.79,521,832
63545.79,521,836
63545.79,522,832
63545.79,523,832
63545.79,521,836
63545.79,521,832
63545.79,520,832
63545.79,518,836
63545.79,518,832
63545.79,517,832
63545.79,518,836
63545.79,515,832
63545.79,514,832
63545.79,512,836
63545.79,512,832
63545.79,512,832
63545.80,515,836
63545.80,519,832
63545.80,519,832
63545.80,521,836
63545.80,521,832
63545.80,521,832
63545.80,522,836
63545.80,522,832
63545.80,524,836
63545.80,524,832
63545.80,523,832
63545.80,522,836
63545.80,520,832
63545.80,521,832
63545.80,523,836
63545.80,523,832
63545.81,525,832
63545.81,527,836
63545.81,525,832
63545.81,522,832
63545.81,522,836
63545.81,523,832
63545.81,523,832
63545.81,521,836
63545.81,520,832
63545.81,518,832
63545.81,518,836
63545.81,520,832
63545.81,522,832
63545.81,523,836
63545.81,525,832
63545.81,527,832
63545.83,526,836
63545.83,527,832
63545.83,524,832
63545.83,524,836
63545.83,523,832
63545.83,520,832
63545.83,517,836
63545.83,515,832
63545.83,513,836
63545.83,511,832
63545.83,511,832
63545.83,514,836
63545.83,515,832
63545.83,518,832
63545.83,519,836
63545.83,519,832
63545.84,521,832
63545.84,521,836
63545.84,521,832
63545.84,519,832
63545.84,517,836
63545.84,517,832
63545.84,516,832
63545.84,515,836
63545.84,512,832
63545.84,510,832
63545.84,511,836
63545.84,511,832
63545.84,514,832
63545.84,515,836
63545.84,515,832
63545.84,516,832
63545.85,517,836
63545.85,517,832
63545.85,517,832
63545.85,517,836
63545.85,517,832
63545.85,517,836
63545.85,518,832
63545.85,518,832
63545.85,520,836
63545.85,521,832
63545.85,521,832
63545.85,523,836
63545.85,521,832
63545.85,520,832
63545.85,517,836
63545.85,516,832
63545.86,517,832
63545.86,517,836
63545.86,521,832
63545.86,521,832
63545.86,520,836
63545.86,519,832
63545.86,517,832
63545.86,517,836
63545.86,515,832
63545.86,513,832
63545.86,513,836
63545.86,515,832
63545.86,514,832
63545.86,512,836
63545.86,511,832
63545.86,513,832
63545.88,513,836
63545.88,514,832
63545.88,516,832
63545.88,516,836
63545.88,516,832
63545.88,518,832
63545.88,518,836
63545.88,519,832
63545.88,519,832
63545.88,517,836
63545.88,516,832
63545.88,514,836
63545.88,514,832
63545.88,515,832
63545.88,515,836
63545.88,516,832
63545.89,518,832
63545.89,519,836
63545.89,519,832
63545.89,519,832
63545.89,518,836
63545.89,515,832
63545.89,514,832
63545.89,513,836
63545.89,511,832
63545.89,509,832
63545.89,507,836
63545.89,506,832
63545.89,507,832
63545.89,509,836
63545.89,512,832
63545.89,514,832
63545.91,516,836
63545.91,518,832
63545.91,519,832
63545.91,520,836
63545.91,520,832
63545.91,518,832
63545.91,516,836
63545.91,514,832
63545.91,512,836
63545.91,511,832
63545.91,511,832
63545.91,511,836
63545.91,511,832
63545.91,512,832
63545.91,513,836
63545.91,513,832
63545.92,514,832
63545.92,516,836
63545.92,518,832
63545.92,520,832
63545.92,519,836
63545.92,519,832
63545.92,519,832
63545.92,518,836
63545.92,518,832
63545.92,515,832
63545.92,515,836
63545.92,515,832
63545.92,515,832
63545.92,516,836
63545.92,516,832
63545.92,517,832
63545.93,517,836
63545.93,516,832
63545.93,515,832
63545.93,516,836
63545.93,517,832
63545.93,517,832
63545.93,517,836
63545.93,516,832
63545.93,517,836
63545.93,516,832
63545.93,518,832
63545.93,518,836
63545.93,517,832
63545.93,518,832
63545.93,518,836
63545.93,519,832
63545.95,520,832
63545.95,520,836
63545.95,520,832
63545.95,519,832
63545.95,520,836
63545.95,520,832
63545.95,520,832
63545.95,521,836
63545.95,522,832
63545.95,523,832
63545.95,524,836
63545.95,524,832
63545.95,524,832
63545.95,522,836
63545.95,522,832
63545.95,525,832
63545.96,524,836
63545.96,523,832
63545.96,523,832
63545.96,521,836
63545.96,519,832
63545.96,518,832
63545.96,519,836
63545.96,520,832
63545.96,519,832
63545.96,521,836
63545.96,522,832
63545.96,523,836
63545.96,525,832
63545.96,523,832
63545.96,523,836
63545.96,524,832
63545.97,522,832
63545.97,523,836
63545.97,520,832
63545.97,520,832
63545.97,521,836
63545.97,519,832
63545.97,518,832
63545.97,518,836
63545.97,517,832
63545.97,516,832
63545.97,515,836
63545.97,517,832
63545.97,517,832
63545.97,517,836
63545.97,519,832
63545.97,520,832
63545.99,521,836
63545.99,520,832
63545.99,517,832
63545.99,517,836
63545.99,517,832
63545.99,519,832
63545.99,519,836
63545.99,518,832
63545.99,520,832
63545.99,520,836
63545.99,521,832
63545.99,521,836
63545.99,519,832
63545.99,518,832
63545.99,518,836
63545.99,518,832
63546.00,518,832
63546.00,518,836
63546.00,518,832
63546.00,519,832
63546.00,517,836
63546.00,516,832
63546.00,515,832
63546.00,513,836
63546.00,515,832
63546.00,515,832
63546.00,516,836
63546.00,518,832
63546.00,518,832
63546.00,519,836
63546.00,517,832
63546.00,515,832
63546.01,514,836
63546.01,514,832
63546.01,516,832
63546.01,516,836
63546.01,517,832
63546.01,519,832
63546.01,519,836
63546.01,520,832
63546.01,520,832
63546.01,521,836
63546.01,523,832
63546.01,524,836
63546.01,523,832
63546.01,522,832
63546.01,521,836
63546.01,521,832
63546.02,520,832
63546.02,520,836
63546.02,521,832
63546.02,520,832
63546.02,522,836
63546.02,522,832
63546.02,521,832
63546.02,520,836
63546.02,522,832
63546.02,523,832
63546.02,524,836
63546.02,522,832
63546.02,521,832
63546.02,524,836
63546.02,525,832
63546.02,526,832
63546.04,526,836
63546.04,527,832
63546.04,527,832
63546.04,525,836
63546.04,524,832
63546.04,522,832
63546.04,520,836
63546.04,521,832
63546.04,521,832
63546.04,519,836
63546.04,516,832
63546.04,514,836
63546.04,515,836
63546.04,513,828
63546.04,515,836
63546.04,516,832
63546.05,517,832
63546.05,516,836
63546.05,516,832
63546.05,518,832
63546.05,517,836
63546.05,516,832
63546.05,516,832
63546.05,517,836
63546.05,519,832
63546.05,519,832
63546.05,519,836
63546.05,521,832
63546.05,522,832
63546.05,523,836
63546.05,524,832
63546.05,524,832
63546.06,523,836
63546.06,523,832
63546.06,525,832
63546.06,526,836
63546.06,525,832
63546.06,525,832
63546.06,525,836
63546.06,525,832
63546.06,525,836
63546.06,526,832
63546.06,528,832
63546.06,529,836
63546.06,531,832
63546.06,532,832
63546.06,529,836
63546.06,528,832
63546.08,526,832
63546.08,525,836
63546.08,523,832
63546.08,521,832
63546.08,520,836
63546.08,520,832
63546.08,519,832
63546.08,519,836
63546.08,520,832
63546.08,522,832
63546.08,523,836
63546.08,524,832
63546.08,526,832
63546.08,527,836
63546.08,527,832
63546.08,527,832
63546.09,526,836
63546.09,523,832
63546.09,522,832
63546.09,520,836
63546.09,519,832
63546.09,519,832
63546.09,520,836
63546.09,520,832
63546.09,521,832
63546.09,521,836
63546.09,522,832
63546.09,523,836
63546.09,525,832
63546.09,526,832
63546.09,527,836
63546.09,527,832
63546.11,527,832
63546.11,526,836
63546.11,523,832
63546.11,520,832
63546.11,518,836
63546.11,517,832
63546.11,518,832
63546.11,518,836
63546.11,520,832
63546.11,523,832
63546.11,524,836
63546.11,526,832
63546.11,527,832
63546.11,527,836
63546.11,526,832
63546.11,527,832
63546.12,527,836
63546.12,527,832
63546.12,526,832
63546.12,526,836
63546.12,526,832
63546.12,526,832
63546.12,527,836
63546.12,528,832
63546.12,527,832
63546.12,527,836
63546.12,526,832
63546.12,526,836
63546.12,524,832
63546.12,521,832
63546.12,520,836
63546.12,517,832
63546.13,516,832
63546.13,515,836
63546.13,514,832
63546.13,514,832
63546.13,515,836
63546.13,515,832
63546.13,518,832
63546.13,520,836
63546.13,520,832
63546.13,521,832
63546.13,523,836
63546.13,523,832
63546.13,523,832
63546.13,525,836
63546.13,525,832
63546.13,524,832
63546.15,523,836
63546.15,519,832
63546.15,515,832
63546.15,515,836
63546.15,514,832
63546.15,515,832
63546.15,517,836
63546.15,519,832
63546.15,522,832
63546.15,524,836
63546.15,525,832
63546.15,525,836
63546.15,524,832
63546.15,523,832
63546.15,522,836
63546.15,523,832
63546.16,522,832
63546.16,522,836
63546.16,521,832
63546.16,522,832
63546.16,522,836
63546.16,521,832
63546.16,521,832
63546.16,521,836
63546.16,521,832
63546.16,522,832
63546.16,523,836
63546.16,524,832
63546.16,525,832
63546.16,525,836
63546.16,524,832
63546.16,524,832
63546.17,523,836
63546.17,520,832
63546.17,518,832
63546.17,518,836
63546.17,519,832
63546.17,519,832
63546.17,520,836
63546.17,520,832
63546.17,520,832
63546.17,519,836
63546.17,517,832
63546.17,517,836
63546.17,518,832
63546.17,519,832
63546.17,521,836
63546.17,519,832
63546.19,521,832
63546.19,522,836
63546.19,523,832
63546.19,524,832
63546.19,526,836
63546.19,527,832
63546.19,528,832
63546.19,529,836
63546.19,531,832
63546.19,530,832
63546.19,531,836
63546.19,532,832
63546.19,531,832
63546.19,532,836
63546.19,531,832
63546.19,530,832
63546.20,532,836
63546.20,530,832
63546.20,530,832
63546.20,530,836
63546.20,530,832
63546.20,529,832
63546.20,529,836
63546.20,530,832
63546.20,530,836
63546.20,531,832
63546.20,531,832
63546.20,530,836
63546.20,527,832
63546.20,526,832
63546.20,525,836
63546.20,523,832
63546.21,521,832
63546.21,521,836
63546.21,523,832
63546.21,523,832
63546.21,523,836
63546.21,523,832
63546.21,524,832
63546.21,524,836
63546.21,523,832
63546.21,523,832
63546.21,523,836
63546.21,523,832
63546.21,524,832
63546.21,525,836
63546.21,527,832
63546.21,527,832
63546.23,525,836
63546.23,523,832
63546.23,520,832
63546.23,516,836
63546.23,512,832
63546.23,510,832
63546.23,507,836
63546.23,505,832
63546.23,504,836
63546.23,504,832
63546.23,504,832
63546.23,507,836
63546.23,510,832
63546.23,513,832
63546.23,515,836
63546.23,516,832
63546.24,516,832
63546.24,515,836
63546.24,514,832
63546.24,514,832
63546.24,513,836
63546.24,513,832
63546.24,513,832
63546.24,514,836
63546.24,515,832
63546.24,515,832
63546.24,516,836
63546.24,516,832
63546.24,517,832
63546.24,518,836
63546.24,519,832
63546.24,520,832
63546.25,521,836
63546.25,522,832
63546.25,520,832
63546.25,519,836
63546.25,519,832
63546.25,519,832
63546.25,518,836
63546.25,517,832
63546.25,519,836
63546.25,520,832
63546.25,523,832
63546.25,523,836
63546.25,523,832
63546.25,523,832
63546.25,520,836
63546.25,520,832
63546.26,519,832
63546.26,517,836
63546.26,517,832
63546.26,517,832
63546.26,519,836
63546.26,519,832
63546.26,519,832
63546.26,519,836
63546.26,519,832
63546.26,520,832
63546.26,520,836
63546.26,522,832
63546.26,524,832
63546.26,524,836
63546.26,523,832
63546.26,523,832
63546.28,523,836
63546.28,520,832
63546.28,520,832
63546.28,520,836
63546.28,520,832
63546.28,521,832
63546.28,522,836
63546.28,523,832
63546.28,523,832
63546.28,522,836
63546.28,521,832
63546.28,519,836
63546.28,517,832
63546.28,515,832
63546.28,516,836
63546.28,517,832
63546.29,516,832
63546.29,514,836
63546.29,513,832
63546.29,513,832
63546.29,513,836
63546.29,512,832
63546.29,513,832
63546.29,514,836
63546.29,515,832
63546.29,516,832
63546.29,518,836
63546.29,518,832
63546.29,518,832
63546.29,518,836
63546.29,518,832
63546.29,519,832
63546.31,520,836
63546.31,522,832
63546.31,523,832
63546.31,524,836
63546.31,526,832
63546.31,526,832
63546.31,524,836
63546.31,521,832
63546.31,520,836
63546.31,519,832
63546.31,518,832
63546.31,517,836
63546.31,516,832
63546.31,514,832
63546.31,513,836
63546.31,515,832
63546.32,517,832
63546.32,518,836
63546.32,520,832
63546.32,523,832
63546.32,525,836
63546.32,526,832
63546.32,528,832
63546.32,526,836
63546.32,525,832
63546.32,523,832
63546.32,521,836
63546.32,519,832
63546.32,516,832
63546.32,515,836
63546.32,515,832
63546.32,515,832
63546.33,516,836
63546.33,517,832
63546.33,519,832
63546.33,522,836
63546.33,523,832
63546.33,527,832
63546.33,528,836
63546.33,528,832
63546.33,529,832
63546.33,528,836
63546.33,527,832
63546.33,527,836
63546.33,526,832
63546.33,525,832
63546.33,525,836
63546.33,525,832
63546.35,528,832
63546.35,527,836
63546.35,526,832
63546.35,527,832
63546.35,528,836
63546.35,527,832
63546.35,526,832
63546.35,525,836
63546.35,525,832
63546.35,525,832
63546.35,527,836
63546.35,526,832
63546.35,525,832
63546.35,525,836
63546.35,525,832
63546.35,524,832
63546.36,525,836
63546.36,526,832
63546.36,527,832
63546.36,529,836
63546.36,530,832
63546.36,530,832
63546.36,532,836
63546.36,532,832
63546.36,531,836
63546.36,530,832
63546.36,531,832
63546.36,532,836
63546.36,535,832
63546.36,537,832
63546.36,540,836
63546.36,543,832
63546.37,544,832
63546.37,546,836
63546.37,545,832
63546.37,543,832
63546.37,543,836
63546.37,543,832
63546.37,543,832
63546.37,541,836
63546.37,540,832
63546.37,540,832
63546.37,539,836
63546.37,539,832
63546.37,540,832
63546.37,539,836
63546.37,542,832
63546.37,543,832
63546.38,544,836
63546.38,544,832
63546.38,544,832
63546.38,544,836
63546.38,544,832
63546.38,545,832
63546.38,548,836
63546.38,552,832
63546.38,556,832
63546.38,560,836
63546.38,563,832
63546.38,566,836
63546.38,566,832
63546.38,565,832
63546.38,563,836
63546.38,564,844
63546.40,566,820
63546.40,567,836
63546.40,567,832
63546.40,565,832
63546.40,566,836
63546.40,570,832
63546.40,573,832
63546.40,575,836
63546.40,580,832
63546.40,584,832
63546.40,589,836
63546.40,592,832
63546.40,591,832
63546.40,592,836
63546.40,593,832
63546.40,593,832
63546.41,592,836
63546.41,592,832
63546.41,593,832
63546.41,594,836
63546.41,595,832
63546.41,599,832
63546.41,603,836
63546.41,607,832
63546.41,609,832
63546.41,608,836
63546.41,612,832
63546.41,613,836
63546.41,616,832
63546.41,618,832
63546.41,618,836
63546.41,619,832
63546.43,619,832
63546.43,619,836
63546.43,619,832
63546.43,621,832
63546.43,624,836
63546.43,626,832
63546.43,628,832
63546.43,632,836
63546.43,633,832
63546.43,635,832
63546.43,637,836
63546.43,637,832
63546.43,639,832
63546.43,640,836
63546.43,640,832
63546.43,642,832