Horizontal,Vertical
0,0
-1.0703125,2.8955078125
-2.15234375,5.62158203125
-2.4931640625,7.66259765625
-1.6064453125,8.857421875
0.4677734375,9.1611328125
3.1103515625,8.5
5.359375,6.890625
6.365234375,4.6796875
5.8642578125,2.62451171875
4.3642578125,1.61083984375
2.9365234375,2.1279296875
2.6943359375,3.90185546875
4.19921875,6.0029296875
7.1083984375,7.43017578125
10.29296875,7.72021484375
12.3759765625,7.138671875
12.4345703125,6.37109375
10.4541015625,6.0185546875
7.3037109375,6.2900390625
4.2998046875,7.0498046875
2.6162109375,8.02392578125
2.8359375,8.9453125
4.7373046875,9.57421875
7.3505859375,9.76708984375
9.3076171875,9.62744140625
9.38671875,9.6162109375
7.0595703125,10.3583984375
2.759765625,12.1689453125
-2.287109375,14.64501953125
-6.5849609375,16.7158203125
-8.9775390625,17.203125
-9.07421875,15.5546875
-7.2939453125,12.28857421875
-4.59765625,8.85791015625
-2.0703125,6.96240234375
-0.59765625,7.6689453125
-0.7099609375,10.7861328125
-2.5380859375,14.8505859375
-5.78515625,17.77197265625
-9.61328125,17.859375
-12.572265625,14.73681640625
-12.69921875,9.671875
-7.9384765625,5.10888671875
3.205078125,3.58349609375
21.0537109375,6.51806640625
44.416015625,13.5048828125
70.712890625,22.49267578125
96.515625,30.78759765625
118.3876953125,36.3154296875
133.7763671875,38.46728515625
141.6396484375,38.16357421875
142.6142578125,37.2197265625
138.72265625,37.3623046875
132.765625,39.36962890625
127.49609375,42.73388671875
124.78125,46.0244140625
125.0478515625,47.76416015625
127.337890625,47.28564453125
130.0068359375,45.0361328125
131.6689453125,42.22607421875
131.8681640625,40.1171875
131.1015625,39.42724609375
130.3125,40.1533203125
130.2236328125,41.76416015625
130.9306640625,43.51513671875
131.9462890625,44.69384765625
132.6181640625,44.77197265625
132.6416015625,43.56103515625
132.3046875,41.3388671875
132.3076171875,38.80517578125
133.2685546875,36.79833984375
135.244140625,35.8876953125
137.583984375,36.09521484375
139.240234375,36.89794921875
139.3486328125,37.5537109375
137.68359375,37.5302734375
134.7509765625,36.80517578125
131.470703125,35.833984375
128.7177734375,35.2431640625
127.005859375,35.45654296875
126.43359375,36.50244140625
126.8330078125,38.072265625
127.935546875,39.72509765625
129.4501953125,41.083984375
131.056640625,41.96435546875
132.4072265625,42.35400390625
133.1982421875,42.2744140625
133.2685546875,41.62646484375
132.6513671875,40.2412109375
131.5732421875,38.1572265625
130.361328125,35.9033203125
129.326171875,34.4892578125
128.685546875,34.9912109375
128.541015625,37.9169921875
128.859375,42.728515625
129.4833984375,47.884765625
130.142578125,51.44921875
130.5654296875,51.95947265625
130.6357421875,49.08935546875
130.470703125,43.82568359375
130.3486328125,38.12255859375
130.51171875,34.1572265625
130.990234375,33.4072265625
131.544921875,35.96923828125
131.79296875,40.498046875
131.44921875,44.87060546875
130.513671875,47.1904296875
129.3193359375,46.6318359375
128.353515625,43.720703125
127.9599609375,39.9775390625
128.1396484375,37.11376953125
128.546875,36.1865234375
128.71484375,37.14111328125
128.298828125,38.98291015625
127.2392578125,40.41650390625
125.76171875,40.5966796875
124.240234375,39.5634765625
123.0654296875,38.14697265625
122.5068359375,37.439453125
122.6181640625,38.1376953125
123.216796875,40.11181640625
123.9765625,42.45849609375
124.6083984375,44.04052734375
124.998046875,44.19287109375
125.21875,43.13525390625
125.408203125,41.826171875
125.6279296875,41.37548828125
125.802734375,42.41650390625
125.81640625,44.7802734375
125.7001953125,47.6123046875
125.765625,49.84033203125
126.544921875,50.73779296875
128.48046875,50.28515625
131.5791015625,49.1640625
135.208984375,48.400390625
138.2861328125,48.841796875
139.7119140625,50.70166015625
138.861328125,53.42626953125
135.9091796875,55.9873046875
131.802734375,57.4072265625
127.9462890625,57.18017578125
125.6767578125,55.39794921875
125.767578125,52.6416015625
128.1533203125,49.75048828125
131.96484375,47.5498046875
135.8857421875,46.62451171875
138.6572265625,47.20458984375
139.5263671875,49.08251953125
138.4326171875,51.58544921875
135.9130859375,53.7001953125
132.81640625,54.4609375
129.990234375,53.4248046875
128.0517578125,50.91943359375
127.2822265625,47.88037109375
127.646484375,45.41015625
128.83984375,44.365234375
130.400390625,45.12890625
131.865234375,47.5498046875
132.9384765625,50.9638671875
133.5283203125,54.33642578125
133.6328125,56.5869140625
133.2177734375,57.03076171875
132.224609375,55.69677734375
130.701171875,53.326171875
128.9755859375,51.04736328125
127.6513671875,49.9140625
127.3818359375,50.47216796875
128.4765625,52.51416015625
130.6171875,55.14599609375
132.9287109375,57.21630859375
134.443359375,57.8828125
134.662109375,57.0107421875
133.7890625,55.18798828125
132.5107421875,53.3916015625
131.48046875,52.46875
130.90625,52.66650390625
130.5322265625,53.462890625
129.951171875,53.87939453125
129.0205078125,53.162109375
128.03125,51.33984375
127.5625,49.2197265625
128.1591796875,47.85107421875
130.021484375,47.91015625
132.8818359375,49.3642578125
136.0869140625,51.4609375
138.8486328125,52.99072265625
140.5146484375,52.76220703125
140.7734375,50.1962890625
139.7294921875,45.7587890625
137.814453125,40.9404296875
135.58203125,37.66650390625
133.494140625,37.39697265625
131.8037109375,40.3798828125
130.580078125,45.5205078125
129.81640625,50.9287109375
129.513671875,54.76953125
129.6552734375,55.95947265625
130.1474609375,54.40673828125
130.80859375,50.84619140625
131.4228515625,46.48974609375
131.810546875,42.73583984375
131.8671875,40.9033203125
131.544921875,41.86181640625
130.8408203125,45.5830078125
129.8369140625,50.9365234375
128.7666015625,56.04248046875
128.0048828125,59.08349609375
127.9619140625,59.10205078125
128.9140625,56.35546875
130.8896484375,52.1064453125
133.640625,48.03564453125
136.6982421875,45.568359375
139.4453125,45.38916015625
141.2109375,47.2626953125
141.4697265625,50.1962890625
140.0673828125,52.8857421875
137.4052734375,54.30810546875
134.376953125,54.18701171875
132.0537109375,53.060546875
131.2373046875,51.87548828125
132.1357421875,51.3740234375
134.298828125,51.68994140625
136.8447265625,52.412109375
138.8232421875,52.9951171875
139.58984375,53.17626953125
138.986328125,53.103515625
137.330078125,53.11083984375
135.2421875,53.3388671875
133.416015625,53.51123046875
132.3935546875,53.083984375
132.4111328125,51.6591796875
133.359375,49.3525390625
134.8427734375,46.87255859375
136.314453125,45.189453125
137.25,44.95361328125
137.357421875,45.9990234375
136.693359375,47.330078125
135.6416015625,47.662109375
134.73828125,46.20068359375
134.4599609375,43.18359375
135.064453125,39.83642578125
136.48046875,37.7705078125
138.306640625,38.1259765625
139.912109375,40.93017578125
140.6376953125,45.04443359375
140.05078125,48.728515625
138.171875,50.47119140625
135.548828125,49.62548828125
133.1083984375,46.57958984375
131.8037109375,42.4833984375
132.1806640625,38.7314453125
134.0986328125,36.41064453125
136.75390625,35.9208984375
139.0029296875,36.880859375
139.8564453125,38.35107421875
138.888671875,39.298828125
136.376953125,39.13720703125
133.154296875,38.01953125
130.2490234375,36.68896484375
128.4736328125,36.00341796875
128.099609375,36.41943359375
128.7880859375,37.72314453125
129.8671875,39.099609375
130.78125,39.533203125
131.4306640625,38.4072265625
132.13671875,35.9775390625
133.267578125,33.38623046875
134.8173828125,32.1142578125
136.2529296875,33.193359375
136.7783203125,36.62841796875
135.8466796875,41.33154296875
133.6142578125,45.548828125
130.9794921875,47.57861328125
129.1611328125,46.49560546875
129.064453125,42.59375
130.814453125,37.31103515625
133.7060546875,32.681640625
136.56640625,30.5205078125
138.2998046875,31.7080078125
138.4013671875,35.814453125
137.2001953125,41.17333984375
135.72265625,45.47021484375
135.1640625,46.7080078125
136.244140625,44.15283203125
138.7958984375,38.744140625
141.927734375,32.6982421875
144.609375,28.45947265625
146.228515625,27.5107421875
146.6357421875,29.66259765625
145.576171875,33.20361328125
142.0654296875,35.876953125
134.3271484375,36.14697265625
120.5517578125,34.08935546875
100.1142578125,31.35546875
74.484375,30.197265625
47.1875,32.11865234375
22.6953125,37.005859375
4.755859375,43.27734375
-4.9248046875,48.880859375
-7.041015625,52.4443359375
-4.0576171875,53.90087890625
0.912109375,54.27587890625
5.1875,54.8583984375
7.2568359375,56.33837890625
7.0263671875,58.47998046875
5.5439453125,60.49267578125
4.2548828125,61.73388671875
4.1904296875,62.1787109375
5.4970703125,62.36865234375
7.509765625,62.95849609375
9.2412109375,64.26220703125
9.9033203125,66.05859375
9.216796875,67.7255859375
7.4580078125,68.54443359375
5.2861328125,68.01318359375
3.45703125,66.08349609375
2.5390625,63.2490234375
2.76171875,60.38134765625
3.9931640625,58.31787109375
5.80859375,57.4375
7.5634765625,57.5302734375
8.5732421875,58.06005859375
8.357421875,58.5634765625
6.8779296875,58.9130859375
4.5791015625,59.2568359375
2.205078125,59.73828125
0.494140625,60.20361328125
-0.1171875,60.173828125
0.3681640625,59.1298828125
1.5234375,56.92822265625
2.716796875,53.974609375
3.3818359375,51.01904296875
3.2685546875,48.748046875
2.5234375,47.5244140625
1.5556640625,47.3896484375
0.7939453125,48.185546875
0.4814453125,49.58203125
0.599609375,51.0419921875
0.9189453125,51.9150390625
1.140625,51.71630859375
1.060546875,50.431640625
0.689453125,48.583984375
0.23046875,47.0107421875
-0.08203125,46.44287109375
-0.1181640625,47.11279296875
0.109375,48.56884765625
0.525390625,49.8076171875
1.037109375,49.7080078125
1.51953125,47.61376953125
1.775390625,43.744140625
1.5966796875,39.21533203125
0.900390625,35.56201171875
-0.0830078125,33.95068359375
-0.7939453125,34.48681640625
-0.5595703125,36.0986328125
1.021484375,37.1337890625
3.7919921875,36.33544921875
6.9970703125,33.62109375
9.5634765625,30.1748046875
10.5615234375,27.73193359375
9.6484375,27.40771484375
7.2900390625,28.81787109375
4.5869140625,30.19140625
2.73046875,29.48974609375
2.373046875,25.78955078125
3.2421875,20.0087890625
4.3154296875,14.56005859375
4.4814453125,12.13623046875
3.2705078125,14.25146484375
1.173828125,20.28759765625
-0.67578125,27.6396484375
-1.216796875,32.97998046875
-0.0849609375,33.9716796875
2.193359375,30.4501953125
4.5595703125,24.40771484375
5.962890625,18.869140625
5.78125,16.31201171875
3.9794921875,17.44970703125
1.0546875,20.98779296875
-2.134765625,24.45556640625
-4.62109375,25.57958984375
-5.6591796875,23.4326171875
-5.06640625,18.80517578125
-3.345703125,13.6748046875
-1.462890625,10.10400390625
-0.34765625,9.1845703125
-0.4267578125,10.60498046875
-1.4833984375,13.037109375
-2.890625,14.99365234375
-4.0146484375,15.6201171875
-4.5556640625,15.00146484375
-4.7001953125,13.94189453125
-5.0029296875,13.41845703125
-6.0498046875,14.0224609375
-8.072265625,15.66455078125
-10.705078125,17.70703125
-13.076171875,19.4521484375
-14.212890625,20.62939453125
-13.5751953125,21.47265625
-11.388671875,22.359375
-8.5458984375,23.39697265625
-6.171875,24.3388671875
-5.0771484375,24.8310546875
-5.419921875,24.68408203125
-6.7080078125,23.99853515625
-8.0693359375,23.12890625
-8.65625,22.53369140625
-7.9912109375,22.615234375
-6.1552734375,23.5712890625
-3.7451171875,25.30810546875
-1.595703125,27.416015625
-0.4072265625,29.25390625
-0.4482421875,30.1435546875
-1.4990234375,29.6044921875
-3.0439453125,27.5361328125
-4.5771484375,24.2998046875
-5.8173828125,20.67041015625
-6.7119140625,17.62060546875
-7.3056640625,15.96142578125
-7.61328125,16.01708984375
-7.6259765625,17.5322265625
-7.3505859375,19.85107421875
-6.81640625,22.236328125
-6.0556640625,24.16455078125
-5.142578125,25.4560546875
-4.2900390625,26.2060546875
-3.896484375,26.5888671875
-4.3466796875,26.69091796875
-5.693359375,26.47119140625
-7.4931640625,25.86474609375
-8.9638671875,24.91845703125
-9.412109375,23.85693359375
-8.6171875,23.0224609375
-6.9404296875,22.74609375
-5.0966796875,23.17626953125
-3.763671875,24.13427734375
-3.3017578125,25.0537109375
-3.6533203125,25.11669921875
-4.4609375,23.63916015625
-5.267578125,20.55029296875
-5.6943359375,16.67041015625
-5.5478515625,13.46435546875
-4.880859375,12.2646484375
-4.0107421875,13.4072265625
-3.423828125,15.8837890625
-3.5439453125,17.8544921875
-4.4580078125,17.69921875
-5.798828125,14.93603515625
-6.8994140625,10.46875
-7.146484375,6.04833984375
-6.3056640625,3.2998046875
-4.6669921875,2.865234375
-2.94921875,4.14306640625
-1.986328125,5.7607421875
-2.33984375,6.439453125
-4.0390625,5.69091796875
-6.5576171875,3.96240234375
-9.0703125,2.21240234375
-10.810546875,1.2490234375
-11.34375,1.2392578125
-10.609375,1.705078125
-8.845703125,1.97998046875
-6.4482421875,1.74951171875
-3.916015625,1.2255859375
-1.732421875,0.818359375
-0.26953125,0.6953125
0.3095703125,0.662109375
0.1005859375,0.453125
-0.6015625,0.11865234375
-1.4208984375,0.1455078125
-2.0751953125,1.13916015625
-2.45703125,3.3193359375
-2.6044921875,6.228515625
-2.599609375,8.8955078125
-2.5126953125,10.3349609375
-2.4169921875,10.06689453125
-2.419921875,8.38720703125
-2.6552734375,6.25341796875
-3.2060546875,4.8125
-3.99609375,4.83837890625
-4.7529296875,6.38818359375
-5.0615234375,8.83203125
-4.5048828125,11.16259765625
-2.8818359375,12.38671875
-0.3828125,11.921875
2.322265625,9.88720703125
4.228515625,7.16943359375
4.373046875,5.1259765625
2.302734375,4.98681640625
-1.5888671875,7.2021484375
-6.064453125,11.0791015625
-9.4462890625,14.955078125
-10.3466796875,16.92041015625
-8.37109375,15.7841796875
-4.392578125,11.765625
-0.189453125,6.52294921875
2.373046875,2.43017578125
2.181640625,1.40869140625
-0.6953125,3.95458984375
-5.1337890625,8.90478515625
-9.521484375,14.05029296875
-12.4228515625,17.208984375
-13.0341796875,17.17138671875
-11.3291015625,14.11669921875
-7.9326171875,9.41552734375
-3.9111328125,4.9697265625
-0.4990234375,2.41064453125
1.208984375,2.4365234375
0.6181640625,4.55810546875
-2.0595703125,7.388671875
-5.7470703125,9.38330078125
-8.8369140625,9.6484375
-9.8662109375,8.3349609375
-8.244140625,6.4111328125
-4.6357421875,5.01416015625
-0.693359375,4.86669921875
1.728515625,6.03076171875
1.50390625,8.01806640625
-1.244140625,10.0478515625
-5.2333984375,11.35205078125
-8.681640625,11.443359375
-10.142578125,10.298828125
-9.1650390625,8.3564453125
-6.416015625,6.328125
-3.2421875,4.8740234375
-0.9794921875,4.28076171875
-0.3623046875,4.28955078125
-1.3095703125,4.23486328125
-3.1123046875,3.52783203125
-4.8349609375,2.16015625
-5.7216796875,0.8662109375
-5.4541015625,0.7578125
-4.162109375,2.63623046875
-2.259765625,6.38720703125
-0.2822265625,10.84228515625
1.2353515625,14.22998046875
1.833984375,15.0693359375
1.2685546875,13.0107421875
-0.3330078125,9.11865234375
-2.4228515625,5.3798828125
-4.1962890625,3.66064453125
-4.9296875,4.7041015625
-4.2900390625,7.724609375
-2.4931640625,10.90673828125
-0.267578125,12.48974609375
1.392578125,11.740234375
1.611328125,9.19189453125
0.029296875,6.15478515625
-3.001953125,3.9306640625
-6.4951171875,3.24560546875
-9.1826171875,4.1103515625
-10.009765625,6.03955078125
-8.626953125,8.453125
-5.6025390625,11.00146484375
-2.224609375,13.64697265625
0.1240234375,16.439453125
0.6591796875,19.201171875
-0.4208984375,21.41796875
-2.0908203125,22.46044921875
-3.13671875,21.9931640625
-2.8603515625,20.26220703125
-1.4296875,18.0556640625
0.298828125,16.32958984375
1.38671875,15.68603515625
1.39453125,16.03369140625
0.591796875,16.67431640625
-0.291015625,16.72314453125
-0.5478515625,15.5888671875
0.1591796875,13.23681640625
1.7373046875,10.21044921875
3.76953125,7.43798828125
5.6171875,5.8984375
6.546875,6.2109375
5.970703125,8.35400390625
3.8154296875,11.66845703125
0.75390625,15.1796875
-1.9482421875,18.1171875
-3.0146484375,20.3779296875
-1.87890625,22.6083984375
0.939453125,25.83642578125
4.1044921875,30.90771484375
6.2392578125,38.1474609375
6.673828125,47.3916015625
5.7099609375,58.173828125
4.2890625,69.82421875
3.3349609375,81.3642578125
3.177734375,91.46142578125
3.4111328125,98.70263671875
3.2431640625,102.2177734375
2.1123046875,102.28369140625
0.1435546875,100.3984375
-1.8583984375,98.623046875
-2.8896484375,98.47900390625
-2.3994140625,100.07666015625
-0.708984375,102.02685546875
1.08203125,102.25390625
1.703125,99.2509765625
0.4384765625,93.00439453125
-2.46484375,85.04443359375
-5.9638671875,77.6318359375
-8.84375,72.60498046875
-10.3701171875,70.53271484375
-10.5888671875,70.56494140625
-10.15234375,70.99951171875
-9.8828125,70.23388671875
-10.353515625,67.58447265625
-11.6708984375,63.5927734375
-13.4814453125,59.70068359375
-15.1943359375,57.52587890625
-16.2822265625,58.13623046875
-16.5810546875,61.71826171875
-16.38671875,67.73779296875
-16.2421875,75.30908203125
-16.5302734375,83.51611328125
-17.21875,91.69091796875
-17.9599609375,99.78271484375
-18.451171875,108.689453125
-18.611328125,120.25634765625
-18.3984375,136.87109375
-17.54296875,160.8466796875
-15.568359375,193.78369140625
-12.146484375,236.00390625
-7.5166015625,286.29833984375
-2.640625,342.2548828125
1.0947265625,401.0830078125
2.4814453125,460.427734375
1.052734375,518.79296875
-2.7490234375,575.52978515625
-7.8828125,630.46630859375
-13.228515625,683.2412109375
-17.8994140625,732.6923828125
-21.2177734375,776.8955078125
-22.5703125,814.12353515625
-21.4560546875,844.10546875
-17.8125,868.509765625
-12.3779296875,890.11962890625
-6.7314453125,911.25537109375
-2.794921875,932.5400390625
-2.033203125,952.78857421875
-4.734375,970.033203125
-9.83984375,982.97802734375
-15.439453125,991.93896484375
-19.716796875,998.68359375
-21.8359375,1005.3720703125
-22.2568359375,1013.3740234375
-22.2568359375,1022.70947265625
-23.0126953125,1032.28564453125
-24.8642578125,1040.611328125
-27.220703125,1046.509765625
-29.12109375,1049.4462890625
-29.98046875,1049.3720703125
-30.0458984375,1046.3115234375
-30.28515625,1040.087890625
-31.7177734375,1030.4296875
-34.6845703125,1017.3564453125
-38.51953125,1001.41455078125
-41.8876953125,983.47509765625
-43.5283203125,964.1552734375
-42.9755859375,943.3134765625
-40.857421875,920.0126953125
-38.6494140625,893.02685546875
-37.9326171875,861.56884765625
-39.482421875,825.783203125
-42.6865234375,786.6865234375
-45.7236328125,745.66259765625
-46.4873046875,703.92236328125
-43.759765625,662.3876953125
-37.9150390625,621.96923828125
-30.763671875,583.84814453125
-24.6767578125,549.35791015625
-21.4794921875,519.4892578125
-21.65625,494.39111328125
-24.2705078125,473.24462890625
-27.5751953125,454.55615234375
-29.978515625,436.6845703125
-30.7841796875,418.35888671875
-30.306640625,398.99462890625
-29.4150390625,378.720703125
-28.8828125,358.056640625
-28.923828125,337.4423828125
-29.16796875,316.974609375
-28.970703125,296.53466796875
-27.9013671875,276.10205078125
-26.095703125,255.9404296875
-24.2724609375,236.5556640625
-23.3828125,218.529296875
-24.0546875,202.31787109375
-26.232421875,188.04638671875
-29.1826171875,175.33544921875
-31.8828125,163.333984375
-33.51953125,151.04443359375
-33.7724609375,137.81201171875
-32.7783203125,123.70556640625
-30.9052734375,109.54931640625
-28.5693359375,96.5693359375
-26.171875,85.8466796875
-24.05859375,77.85205078125
-22.435546875,72.28955078125
-21.296875,68.314453125
-20.4521484375,64.95263671875
-19.693359375,61.4501953125
-18.9736328125,57.42578125
-18.4794921875,52.82080078125
-18.52734375,47.80224609375
-19.3193359375,42.6953125
-20.693359375,37.96728515625
-22.0830078125,34.15869140625
-22.75390625,31.73046875
-22.22265625,30.8564453125
-20.5126953125,31.322265625
-18.0595703125,32.5595703125
-15.3291015625,33.7744140625
-12.5517578125,34.10107421875
-9.7529296875,32.79443359375
-7.033203125,29.521484375
-4.7900390625,24.67822265625
-3.6474609375,19.47412109375
-4.1171875,15.578125
-6.193359375,14.36328125
-9.1923828125,16.12744140625
-11.974609375,19.7958984375
-13.4267578125,23.369140625
-12.99609375,24.94140625
-11.001953125,23.71923828125
-8.5224609375,20.43994140625
-6.8671875,16.91748046875
-6.9345703125,14.96142578125
-8.779296875,15.33837890625
-11.611328125,17.4208984375
-14.201171875,19.6728515625
-15.4736328125,20.61669921875
-15.021484375,19.6328125
-13.2626953125,17.21533203125
-11.162109375,14.64697265625
-9.669921875,13.396484375
-9.2236328125,14.482421875
-9.630859375,18.00537109375
-10.3544921875,22.98876953125
-10.9404296875,27.65234375
-11.283203125,30.09326171875
-11.6064453125,29.1181640625
-12.2421875,24.86279296875
-13.37109375,18.87451171875
-14.8525390625,13.521484375
-16.203125,10.91845703125
-16.814453125,11.91015625
-16.2744140625,15.693359375
-14.6259765625,20.3125
-12.392578125,23.7138671875
-10.33984375,24.7236328125
-9.1728515625,23.40478515625
-9.2958984375,20.7275390625
-10.6982421875,17.88232421875
-12.98046875,15.66650390625
-15.4951171875,14.26416015625
-17.5537109375,13.43310546875
-18.666015625,12.89208984375
-18.7177734375,12.60009765625
-18.0283203125,12.724609375
-17.2177734375,13.40478515625
-16.90625,14.52001953125
-17.349609375,15.625
-18.26171875,16.05810546875
-18.91015625,15.25244140625
-18.5078125,13.13134765625
-16.6796875,10.3583984375
-13.7548828125,8.16650390625
-10.6884765625,7.7607421875
-8.6279296875,9.6044921875
-8.3681640625,13.0439453125
-9.9658203125,16.56201171875
-12.7236328125,18.5458984375
-15.5234375,18.12548828125
-17.3720703125,15.607421875
-17.8798828125,12.30322265625
-17.365234375,9.857421875
-16.56640625,9.4296875
-16.1455078125,11.158203125
-16.3720703125,14.17822265625
-17.0947265625,17.1494140625
-17.955078125,18.98046875
-18.62890625,19.4033203125
-18.94140625,19.08984375
-18.8525390625,19.228515625
-18.3759765625,20.79541015625
-17.541015625,23.96240234375
-16.4267578125,28.01416015625
-15.23046875,31.810546875
-14.2734375,34.44140625
-13.87890625,35.62109375
-14.2041015625,35.60546875
-15.154296875,34.80322265625
-16.408203125,33.51123046875
-17.552734375,31.98046875
-18.21484375,30.646484375
-18.1484375,30.171875
-17.2509765625,31.1513671875
-15.556640625,33.6806640625
-13.255859375,37.12109375
-10.767578125,40.26220703125
-8.7568359375,41.82666015625
-7.99609375,41.08740234375
-9.0126953125,38.26220703125
-11.72265625,34.44140625
-15.2978515625,31.1103515625
-18.4326171875,29.51806640625
-19.890625,30.16796875
-19.033203125,32.6181640625
-16.0830078125,35.68359375
-11.9912109375,37.9697265625
-8.0400390625,38.537109375
-5.404296875,37.32275390625
-4.7998046875,35.10546875
-6.2978515625,33.0693359375
-9.3154296875,32.24365234375
-12.8193359375,33.06689453125
-15.732421875,35.23291015625
-17.3564453125,37.83837890625
-17.6044921875,39.7822265625
-16.9638671875,40.244140625
-16.1787109375,39.0322265625
-15.8212890625,36.642578125
-16.01171875,34.01123046875
-16.4521484375,32.103515625
-16.748046875,31.53857421875
-16.7138671875,32.3603515625
-16.4453125,34.01611328125
-16.140625,35.5625
-15.8662109375,36.10205078125
-15.4658203125,35.251953125
-14.67578125,33.33056640625
-13.376953125,31.11474609375
-11.810546875,29.306640625
-10.533203125,28.07421875
-10.119140625,26.9697265625
-10.8076171875,25.31201171875
-12.34375,22.80419921875
-14.1142578125,19.9052734375
-15.466796875,17.58935546875
-16.021484375,16.630859375
-15.7841796875,17.021484375
-15.0458984375,17.958984375
-14.154296875,18.37255859375
-13.3251953125,17.56787109375
-12.5654296875,15.59033203125
-11.72265625,13.17236328125
-10.6181640625,11.3232421875
-9.2080078125,10.83447265625
-7.6650390625,11.92333984375
-6.3525390625,14.15087890625
-5.689453125,16.609375
-5.974609375,18.2763671875
-7.24609375,18.42626953125
-9.2294921875,16.943359375
-11.423828125,14.35888671875
-13.2919921875,11.5849609375
-14.4873046875,9.4599609375
-14.9716796875,8.3740234375
-14.9658203125,8.197265625
-14.7900390625,8.4951171875
-14.71484375,8.81982421875
-14.8583984375,8.85302734375
-15.1455078125,8.40966796875
-15.341796875,7.43798828125
-15.2138671875,6.06640625
-14.6650390625,4.591796875
-13.7958984375,3.32861328125
-12.8291015625,2.4248046875
-12.02734375,1.82080078125
-11.642578125,1.384765625
-11.86328125,1.08740234375
-12.7119140625,1.00341796875
-13.9072265625,1.14794921875
-14.8515625,1.3505859375
-14.8564453125,1.345703125
-13.5498046875,1.0419921875
-11.2265625,0.70556640625
-8.818359375,0.84228515625
-7.4345703125,1.7705078125
-7.73046875,3.197265625
-9.5068359375,4.20361328125
-11.8173828125,3.7734375
-13.5224609375,1.56396484375
-13.958984375,-1.63330078125
-13.2626953125,-4.13623046875
-12.1416015625,-4.28759765625
-11.294921875,-1.58984375
-10.9521484375,2.7373046875
-10.8603515625,6.2666015625
-10.6357421875,6.787109375
-10.1162109375,3.72021484375
-9.4521484375,-1.439453125
-8.970703125,-5.9951171875
-8.9765625,-7.64697265625
-9.6611328125,-5.78125
-11.052734375,-1.69970703125
-12.9912109375,2.24609375
-15.08984375,4.0205078125
-16.7880859375,2.96240234375
-17.52734375,-0.0439453125
-17.0087890625,-3.2705078125
-15.349609375,-5.15283203125
-13.072265625,-4.96240234375
-10.900390625,-2.8642578125
-9.458984375,0.39111328125
-9.02734375,3.8310546875
-9.439453125,6.51123046875
-10.1708984375,7.70751953125
-10.5673828125,7.07421875
-10.1025390625,4.7275390625
-8.595703125,1.22802734375
-6.3232421875,-2.48486328125
-3.9697265625,-5.21923828125
-2.3876953125,-5.82470703125
-2.2158203125,-3.7119140625
-3.548828125,0.6435546875
-5.8486328125,5.61669921875
-8.2119140625,9.02490234375
-9.8154296875,9.17822265625
-10.26953125,5.81884765625
-9.697265625,0.359375
-8.5625,-4.7998046875
-7.359375,-7.49609375
-6.3837890625,-6.82861328125
-5.6669921875,-3.4228515625
-5.087890625,1.0859375
-4.578125,4.90625
-4.2451171875,6.791015625
-4.341796875,6.35302734375
-5.056640625,4.0009765625
-6.341796875,0.60498046875
-7.916015625,-2.91015625
-9.421875,-5.82763671875
-10.6103515625,-7.671875
-11.4326171875,-8.10009765625
-12.0205078125,-6.86376953125
-12.5947265625,-3.94677734375
-13.3466796875,0.19287109375
-14.3466796875,4.4970703125
-15.5146484375,7.46728515625
-16.6533203125,7.66552734375
-17.517578125,4.42236328125
-17.880859375,-1.587890625
-17.625,-8.32275390625
-16.82421875,-13.11376953125
-15.765625,-13.86572265625
-14.876953125,-10.1044921875
-14.5498046875,-3.25830078125
-14.94140625,3.9921875
-15.853515625,8.94873046875
-16.798828125,10.09814453125
-17.263671875,7.7353515625
-17.041015625,3.74609375
-16.4150390625,0.6220703125
-16.044921875,0.18701171875
-16.603515625,2.6884765625
-18.3916015625,6.77880859375
-21.1455078125,10.31640625
-24.1376953125,11.50341796875
-26.4658203125,9.73388671875
-27.435546875,5.78662109375
-26.8115234375,1.369140625
-24.8818359375,-1.71826171875
-22.306640625,-2.35546875
-19.8427734375,-0.4970703125
-18.0849609375,2.88720703125
-17.2958984375,6.25048828125
-17.4013671875,8.10986328125
-18.1318359375,7.66748046875
-19.1728515625,5.13916015625
-20.255859375,1.60205078125
-21.154296875,-1.49853515625
-21.6875,-2.94287109375
-21.7841796875,-2.18896484375
-21.533203125,0.41455078125
-21.1806640625,3.732421875
-20.98828125,6.30810546875
-21.0400390625,7.05615234375
-21.1572265625,5.8359375
-20.9921875,3.5341796875
-20.283203125,1.6015625
-19.0322265625,1.29296875
-17.4921875,3.01953125
-16.0205078125,6.15478515625
-14.908203125,9.36572265625
-14.29296875,11.306640625
-14.1513671875,11.2998046875
-14.33203125,9.638671875
-14.6357421875,7.38232421875
-14.908203125,5.79248046875
-15.1201171875,5.76171875
-15.37890625,7.46533203125
-15.845703125,10.291015625
-16.5869140625,13.02880859375
-17.5068359375,14.3310546875
-18.3984375,13.3623046875
-19.107421875,10.31298828125
-19.6572265625,6.40283203125
-20.193359375,3.341796875
-20.78515625,2.55126953125
-21.265625,4.56005859375
-21.2958984375,8.80224609375
-20.5751953125,13.8310546875
-19.064453125,17.84423828125
-17.03515625,19.34716796875
-14.982421875,17.72265625
-13.4287109375,13.4912109375
-12.7578125,8.17431640625
-13.06640625,3.79052734375
-14.1220703125,2.14794921875
-15.4501953125,4.14794921875
-16.5126953125,9.39208984375
-16.9443359375,16.251953125
-16.6826171875,22.39697265625
-15.9599609375,25.59130859375
-15.1064453125,24.529296875
-14.33203125,19.43701171875
-13.6103515625,12.138671875
-12.7841796875,5.43408203125
-11.7763671875,1.94580078125
-10.7119140625,2.931640625
-9.853515625,7.71728515625
-9.439453125,14.07861328125
-9.556640625,19.35107421875
-10.146484375,21.60595703125
-11.0810546875,20.33935546875
-12.2119140625,16.47021484375
-13.3857421875,11.787109375
-14.4296875,8.173828125
-15.15234375,6.92333984375
-15.373046875,8.3583984375
-14.9873046875,11.80419921875
-14.0595703125,15.92822265625
-12.8388671875,19.33251953125
-11.6962890625,21.1396484375
-10.9853515625,21.2236328125
-10.912109375,20.0087890625
-11.4873046875,18.08349609375
-12.541015625,15.98828125
-13.7822265625,14.296875
-14.86328125,13.71875
-15.48046875,14.98876953125
-15.50390625,18.48779296875
-15.06640625,23.82177734375
-14.5625,29.67626953125
-14.4609375,34.16015625
-15.0498046875,35.609375
-16.2158203125,33.462890625
-17.478515625,28.6728515625
-18.263671875,23.3759765625
-18.25,19.9755859375
-17.5400390625,20.10595703125
-16.5625,23.9267578125
-15.7607421875,30.0556640625
-15.3134765625,36.28125
-15.064453125,40.7978515625
-14.7001953125,43.28173828125
-14.033203125,45.0302734375
-13.1953125,47.9697265625
-12.5673828125,53.23974609375
-12.537109375,60.345703125
-13.2197265625,67.45166015625
-14.3232421875,72.53125
-15.2470703125,74.5859375
-15.3486328125,74.130859375
-14.2822265625,72.7265625
-12.2353515625,71.9228515625
-9.904296875,72.3388671875
-8.193359375,73.427734375
-7.8095703125,74.01513671875
-8.9326171875,73.2001953125
-11.1796875,71.0087890625
-13.802734375,68.3916015625
-16.0205078125,66.60546875
-17.287109375,66.40576171875
-17.4072265625,67.583984375
-16.5166015625,69.1318359375
-14.9677734375,69.8955078125
-13.232421875,69.2568359375
-11.853515625,67.39013671875
-11.3720703125,64.9833984375
-12.1484375,62.65380859375
-13.943359375,60.4541015625
-15.55859375,57.78076171875
-14.888671875,53.71435546875
-9.5986328125,47.564453125
1.802734375,39.2119140625
19.013671875,29.04833984375
39.68359375,17.65576171875
60.0400390625,5.58642578125
76.23046875,-6.61328125
85.748046875,-18.26611328125
88.25390625,-28.5400390625
85.4228515625,-36.5322265625
80.0302734375,-41.38134765625
74.810546875,-42.443359375
71.642578125,-39.53369140625
71.2265625,-33.1318359375
73.22265625,-24.38134765625
76.619140625,-14.84814453125
80.20703125,-6.18017578125
82.9609375,0.2255859375
84.2939453125,3.5078125
84.1123046875,3.57275390625
82.7490234375,1.16162109375
80.796875,-2.33642578125
78.8935546875,-5.345703125
77.458984375,-6.6484375
76.5498046875,-5.79150390625
75.9013671875,-3.18896484375
75.1669921875,0.08251953125
74.162109375,2.73046875
72.9482421875,3.7802734375
71.7646484375,2.91796875
70.8974609375,0.4931640625
70.5634765625,-2.77392578125
70.826171875,-6.10009765625
71.5322265625,-8.830078125
72.328125,-10.53271484375
72.8017578125,-11.052734375
72.669921875,-10.4970703125
71.9296875,-9.1533203125
70.9189453125,-7.40234375
70.1767578125,-5.69677734375
70.1640625,-4.53857421875
70.970703125,-4.4033203125
72.2841796875,-5.57275390625
73.6123046875,-7.96533203125
74.62890625,-11.08154296875
75.349609375,-14.13525390625
76.0439453125,-16.359375
76.9482421875,-17.39697265625
77.984375,-17.546875
78.720703125,-17.630859375
78.6142578125,-18.48291015625
77.4228515625,-20.37939453125
75.46484375,-22.85302734375
73.5087890625,-25.0166015625
72.400390625,-26.14453125
72.6494140625,-26.11669921875
74.2958984375,-25.49609375
76.9853515625,-25.23583984375
80.123046875,-26.1630859375
82.9638671875,-28.50927734375
84.7138671875,-31.740234375
84.7158203125,-34.7666015625
82.7216796875,-36.46728515625
79.1064453125,-36.3046875
74.8583984375,-34.74658203125
71.2939453125,-33.20947265625
69.55859375,-33.4208984375
70.162109375,-36.45361328125
72.7890625,-41.96630859375
76.462890625,-48.1591796875
80.0009765625,-52.552734375
82.447265625,-53.2216796875
83.3623046875,-49.78759765625
82.873046875,-43.62060546875
81.5869140625,-37.14501953125
80.3466796875,-32.666015625
79.892578125,-31.36279296875
80.5244140625,-32.95263671875
82.0087890625,-36.0908203125
83.7548828125,-39.169921875
85.1416015625,-41.025390625
85.7705078125,-41.26904296875
85.513671875,-40.1982421875
84.4228515625,-38.49267578125
82.673828125,-36.90478515625
80.5810546875,-36.0615234375
78.6005859375,-36.3046875
77.2490234375,-37.5654296875
76.962890625,-39.3564453125
77.9365234375,-40.96728515625
80.0263671875,-41.7763671875
82.7392578125,-41.49560546875
85.326171875,-40.2255859375
87.005859375,-38.30078125
87.25,-36.11181640625
86.025390625,-34.013671875
83.8623046875,-32.3369140625
81.6806640625,-31.36767578125
80.41015625,-31.2294921875
80.5869140625,-31.7919921875
82.1259765625,-32.70849609375
84.427734375,-33.56787109375
86.7099609375,-34.06201171875
88.3271484375,-34.07568359375
88.9033203125,-33.69677734375
88.3154296875,-33.17236328125
86.6796875,-32.82275390625
84.3984375,-32.9208984375
82.177734375,-33.57080078125
80.8701171875,-34.638671875
81.140625,-35.74755859375
83.1015625,-36.37353515625
86.146484375,-36.04248046875
89.1474609375,-34.57373046875
90.9951171875,-32.25634765625
91.134765625,-29.8466796875
89.7802734375,-28.333984375
87.65625,-28.529296875
85.5439453125,-30.6533203125
83.8994140625,-34.078125
82.775390625,-37.44775390625
81.9560546875,-39.19482421875
81.2109375,-38.291015625
80.4912109375,-34.8701171875
79.982421875,-30.3173828125
79.994140625,-26.705078125
80.783203125,-25.814453125
82.388671875,-28.28125
84.5947265625,-33.35595703125
87.0146484375,-39.34326171875
89.24609375,-44.3671875
90.9658203125,-47.04296875
91.9111328125,-46.849609375
91.841796875,-44.16455078125
90.564453125,-40.05126953125
88.0751953125,-35.85400390625
84.6953125,-32.7490234375
81.1484375,-31.40673828125
78.40234375,-31.8681640625
77.3408203125,-33.623046875
78.3505859375,-35.83251953125
81.1162109375,-37.60791015625
84.70703125,-38.31884765625
87.92578125,-37.8505859375
89.720703125,-36.6611328125
89.4970703125,-35.51025390625
87.3154296875,-34.9970703125
83.90234375,-35.22802734375
80.44140625,-35.86962890625
78.177734375,-36.490234375
77.9228515625,-36.8857421875
79.720703125,-37.1455078125
82.822265625,-37.4970703125
86.0380859375,-38.146484375
88.2978515625,-39.20166015625
89.1318359375,-40.6435546875
88.8251953125,-42.27734375
88.1640625,-43.72802734375
87.9853515625,-44.53466796875
88.7412109375,-44.3916015625
90.2744140625,-43.35009765625
91.875,-41.8583984375
92.6669921875,-40.55615234375
92.0947265625,-39.91162109375
90.2421875,-39.8935546875
87.78515625,-39.95751953125
85.6357421875,-39.400390625
84.5126953125,-37.873046875
84.7001953125,-35.6357421875
86.037109375,-33.41552734375
88.0537109375,-31.9970703125
90.130859375,-31.841796875
91.6455078125,-32.86767578125
92.1201171875,-34.45947265625
91.3994140625,-35.66845703125
89.78125,-35.57421875
87.9951171875,-33.67041015625
86.8955078125,-30.12646484375
86.94921875,-25.8046875
87.8515625,-22.0048828125
88.580078125,-19.96875
87.94140625,-20.32177734375
85.302734375,-22.7080078125
81.0380859375,-25.8359375
76.43359375,-27.96630859375
73.1171875,-27.64404296875
72.27734375,-24.39794921875
74.0869140625,-19.08349609375
77.587890625,-13.6572265625
81.1142578125,-10.38623046875
83.076171875,-10.7783203125
82.697265625,-14.70849609375
80.3271484375,-20.2734375
77.2197265625,-24.59814453125
74.89453125,-25.330078125
74.4208984375,-22.01904296875
75.9443359375,-16.548828125
78.6806640625,-12.22705078125
81.4033203125,-11.95166015625
83.14453125,-16.43994140625
83.6572265625,-23.5927734375
83.41015625,-29.49853515625
83.1494140625,-30.62890625
83.3837890625,-25.94384765625
84.109375,-17.58349609375
84.8935546875,-9.6572265625
85.2119140625,-5.88818359375
84.810546875,-7.568359375
83.8505859375,-13.03271484375
82.779296875,-18.86572265625
82.0205078125,-22.021484375
81.755859375,-21.5576171875
81.9306640625,-18.96435546875
82.4013671875,-17.0078125
83.0751953125,-17.89306640625
83.8935546875,-21.90625
84.76171875,-27.32177734375
85.501953125,-31.51220703125
85.9111328125,-32.48583984375
85.892578125,-29.90185546875
85.556640625,-25.07958984375
85.1953125,-20.19677734375
85.083984375,-17.20068359375
85.25,-16.96142578125
85.3896484375,-18.97998046875
85.0205078125,-21.76611328125
83.8037109375,-23.6552734375
81.810546875,-23.6064453125
79.58984375,-21.58544921875
77.931640625,-18.427734375
77.5009765625,-15.353515625
78.482421875,-13.37646484375
80.439453125,-12.861328125
82.4853515625,-13.43115234375
83.7275390625,-14.1904296875
83.734375,-14.107421875
82.7197265625,-12.39013671875
81.3369140625,-8.78369140625
80.2490234375,-3.736328125
79.755859375,1.6357421875
79.720703125,5.85986328125
79.75390625,7.693359375
79.521484375,6.76123046875
79.009765625,3.880859375
78.5478515625,0.78857421875
78.599609375,-0.66259765625
79.501953125,0.56689453125
81.310546875,4.14697265625
83.8203125,8.515625
86.6708984375,11.65966796875
89.46484375,12.1611328125
91.8203125,9.955078125
93.3681640625,6.3828125
93.8017578125,3.51123046875
92.990234375,3.06005859375
91.0927734375,5.5068359375
88.5634765625,9.82763671875
86.02734375,14.02490234375
84.1337890625,16.1748046875
83.4169921875,15.4443359375
84.1083984375,12.57568359375
85.8818359375,9.67822265625
87.6435546875,9.51953125
87.6416015625,14.6533203125
83.93359375,26.642578125
75.111328125,45.6083984375
60.978515625,70.27294921875
42.8564453125,98.48876953125
23.373046875,127.94921875
5.724609375,156.6875
-7.3544921875,183.1904296875
-14.4306640625,206.28369140625
-15.6826171875,225.10302734375
-12.6162109375,239.193359375
-7.427734375,248.5810546875
-2.328125,253.68603515625
0.9931640625,255.125
1.724609375,253.56787109375
0.01953125,249.693359375
-3.203125,244.27099609375
-6.7138671875,238.23193359375
-9.5107421875,232.53076171875
-11.1533203125,227.77734375
-11.7734375,223.88037109375
-11.830078125,220.08056640625
-11.7578125,215.466796875
-11.7548828125,209.61328125
-11.7421875,202.8681640625
-11.5,196.12841796875
-10.8837890625,190.33154296875
-9.9658203125,186.03515625
-9.01953125,183.3056640625
-8.35546875,181.8408203125
-8.130859375,181.1416015625
-8.267578125,180.5673828125
-8.51953125,179.4033203125
-8.6796875,177.1015625
-8.7802734375,173.61376953125
-9.162109375,169.56396484375
-10.296875,166.02783203125
-12.458984375,163.99853515625
-15.4306640625,163.80517578125
-18.466796875,164.86083984375
-20.58984375,165.9033203125
-21.0908203125,165.64892578125
-19.9501953125,163.51171875
-17.888671875,159.95849609375
-16.0048828125,156.23046875
-15.1953125,153.61865234375
-15.7255859375,152.75439453125
-17.1767578125,153.3623046875
-18.75390625,154.51611328125
-19.7265625,155.17333984375
-19.7587890625,154.662109375
-19.0048828125,152.89892578125
-17.970703125,150.2412109375
-17.234375,147.16796875
-17.15625,144.03759765625
-17.7529296875,141.0498046875
-18.759765625,138.31201171875
-19.84375,135.927734375
-20.7431640625,134.0654296875
-21.3291015625,132.94677734375
-21.5625,132.7255859375
-21.455078125,133.33349609375
-21.0224609375,134.41748046875
-20.2685546875,135.3974609375
-19.212890625,135.63916015625
-17.970703125,134.67724609375
-16.80859375,132.447265625
-16.0771484375,129.42041015625
-16.0615234375,126.50732421875
-16.78515625,124.70703125
-17.92578125,124.6435546875
-18.9521484375,126.21875
-19.3974609375,128.60302734375
-19.1416015625,130.6220703125
-18.5048828125,131.36767578125
-18.1201171875,130.68603515625
-18.650390625,129.23095703125
-20.4501953125,128.02490234375
-23.3349609375,127.81640625
-26.5654296875,128.66015625
-29.125,129.9716796875
-30.22265625,130.95751953125
-29.7568359375,131.07470703125
-28.4443359375,130.23388671875
-27.44921875,128.69384765625
-27.759765625,126.86181640625
-29.634765625,125.18798828125
-32.4716796875,124.14892578125
-35.1650390625,124.1640625
-36.6982421875,125.30078125
-36.6376953125,126.97265625
-35.212890625,127.98974609375
-33.029296875,127.09814453125
-30.6572265625,123.73583984375
-28.4482421875,118.46826171875
-26.5869140625,112.82958984375
-25.1923828125,108.6220703125
-24.3115234375,107.0732421875
-23.82421875,108.31884765625
-23.484375,111.43408203125
-23.099609375,114.94140625
-22.65625,117.408203125
-22.2744140625,117.89501953125
-22.0478515625,116.15478515625
-21.9189453125,112.69189453125
-21.703125,108.65478515625
-21.2412109375,105.4970703125
-20.5869140625,104.39697265625
-20.072265625,105.6806640625
-20.19140625,108.61328125
-21.3115234375,111.751953125
-23.392578125,113.720703125
-25.8994140625,113.90673828125
-27.9892578125,112.61328125
-28.87109375,110.64111328125
-28.1767578125,108.6787109375
-26.1630859375,106.97119140625
-23.646484375,105.4453125
-21.6787109375,104.08935546875
-21.0986328125,103.21728515625
-22.158203125,103.37890625
-24.466796875,104.92724609375
-27.232421875,107.55517578125
-29.625,110.20654296875
-31.099609375,111.556640625
-31.5634765625,110.837890625
-31.3173828125,108.42578125
-30.8564453125,105.72021484375
-30.5546875,104.3486328125
-30.439453125,105.203125
-30.1904296875,107.91650390625
-29.4345703125,111.04052734375
-28.1923828125,112.7998046875
-27.107421875,111.9970703125
-27.2275390625,108.63427734375
-29.4013671875,103.93408203125
-33.62109375,99.771484375
-38.798828125,97.81884765625
-43.1875,98.810546875
-45.212890625,102.2412109375
-44.2568359375,106.5517578125
-40.9453125,109.748046875
-36.833984375,110.24169921875
-33.70703125,107.615234375
-32.802734375,102.93212890625
-34.2841796875,98.3330078125
-37.173828125,96.01416015625
-39.798828125,97.1201171875
-40.568359375,101.18896484375
-38.7626953125,106.4365234375
-34.9033203125,110.66943359375
-30.458984375,112.30859375
-27.0849609375,111.05029296875
-25.8408203125,107.89697265625
-26.8388671875,104.6083984375
-29.41015625,102.85205078125
-32.5966796875,103.4853515625
-35.5869140625,106.28125
-37.876953125,110.1591796875
-39.201171875,113.73974609375
-39.3955078125,115.95751953125
-38.4296875,116.4560546875
-36.5302734375,115.634765625
-34.26953125,114.3642578125
-32.474609375,113.5830078125
-31.958984375,113.9033203125
-33.181640625,115.3515625
-35.9990234375,117.32763671875
-39.646484375,118.86328125
-43.0068359375,119.17041015625
-45.05859375,118.17626953125
-45.314453125,116.72314453125
-44.0009765625,116.19287109375
-41.888671875,117.7001953125
-39.873046875,121.28076171875
-38.5732421875,125.64208984375
-38.1337890625,128.71533203125
-38.33984375,128.76708984375
-38.8505859375,125.4345703125
-39.3759765625,120.02685546875
-39.73828125,114.91455078125
-39.8515625,112.32470703125
-39.728515625,113.25439453125
-39.4375,117.07568359375
-39.0546875,121.97900390625
-38.6005859375,125.89306640625
-38.01953125,127.3798828125
-37.2451171875,126.16845703125
-36.28515625,123.17822265625
-35.267578125,119.9990234375
-34.4189453125,118.0771484375
-33.9423828125,118.0400390625
-33.884765625,119.52099609375
-34.0830078125,121.5341796875
-34.2373046875,123.09130859375
-34.1044921875,123.73828125
-33.642578125,123.73388671875
-33.0498046875,123.79296875
-32.6884765625,124.52880859375
-32.8955078125,126.00048828125
-33.798828125,127.701171875
-35.20703125,128.9794921875
-36.65625,129.51953125
-37.6201171875,129.52099609375
-37.80078125,129.4775390625
-37.2841796875,129.7861328125
-36.4970703125,130.5
-35.9990234375,131.3974609375
-36.1962890625,132.27099609375
-37.138671875,133.16357421875
-38.45703125,134.3232421875
-39.5166015625,135.9150390625
-39.7314453125,137.7822265625
-38.904296875,139.486328125
-37.376953125,140.5634765625
-35.857421875,140.80419921875
-35.0419921875,140.373046875
-35.251953125,139.7109375
-36.326171875,139.271484375
-37.791015625,139.2763671875
-39.208984375,139.65966796875
-40.3857421875,140.17529296875
-41.3408203125,140.5380859375
-42.1025390625,140.49853515625
-42.5390625,139.92919921875
-42.3974609375,138.9267578125
-41.537109375,137.86181640625
-40.1025390625,137.271484375
-38.5458984375,137.623046875
-37.4091796875,139.08544921875
-37.046875,141.3994140625
-37.431640625,143.8955078125
-38.18359375,145.7060546875
-38.8125,146.1162109375
-39.05078125,144.951171875
-39.01953125,142.7705078125
-39.1455078125,140.6630859375
-39.8642578125,139.7138671875
-41.291015625,140.404296875
-43.087890625,142.28955078125
-44.6142578125,144.1357421875
-45.2626953125,144.5478515625
-44.8134765625,142.84033203125
-43.5302734375,139.658203125
-42.00390625,136.826171875
-40.822265625,136.36669921875
-40.30859375,139.166015625
-40.4365234375,144.18359375
-40.9013671875,148.857421875
-41.287109375,150.5849609375
-41.24609375,148.3740234375
-40.666015625,143.54052734375
-39.7431640625,138.92822265625
-38.9033203125,137.11865234375
-38.5634765625,138.8525390625
-38.8369140625,142.72314453125
-39.3935546875,146.26513671875
-39.6015625,147.5869140625
-38.9443359375,146.46484375
-37.4130859375,144.31298828125
-35.587890625,143.2490234375
-34.3662109375,144.9775390625
-34.48046875,150.15234375
-36.0732421875,158.38330078125
-38.5751953125,168.67919921875
-40.9365234375,179.921875
-42.1328125,191.22314453125
-41.671875,202.1142578125
-39.8876953125,212.61083984375
-37.83203125,223.142578125
-36.7802734375,234.38916015625
-37.6064453125,246.99365234375
-40.34765625,261.20849609375
-44.2216796875,276.59375
-47.982421875,292.0673828125
-50.3994140625,306.4482421875
-50.62109375,319.3291015625
-48.3466796875,331.82421875
-43.880859375,346.83251953125
-38.111328125,368.57666015625
-32.412109375,401.3974609375
-28.3994140625,448.09814453125
-27.4775390625,508.57275390625
-30.2626953125,579.5361328125
-36.2001953125,655.55908203125
-43.66015625,730.78173828125
-50.5810546875,800.46044921875
-55.32421875,861.8056640625
-57.2490234375,914.02099609375
-56.7978515625,957.73681640625
-55.080078125,994.1904296875
-53.3076171875,1024.599609375
-52.37109375,1049.9697265625
-52.6923828125,1071.17724609375
-54.3037109375,1089.0107421875
-56.966796875,1104.12744140625
-60.234375,1117.1025390625
-63.4677734375,1128.640625
-65.9404296875,1139.61865234375
-67.080078125,1150.6904296875
-66.7744140625,1161.6875
-65.5283203125,1171.4404296875
-64.318359375,1178.380859375
-64.0830078125,1181.60546875
-65.15625,1181.669921875
-66.9794921875,1180.4990234375
-68.4111328125,1180.38720703125
-68.478515625,1182.7001953125
-67.0830078125,1187.1435546875
-65.1630859375,1191.9853515625
-64.154296875,1194.9482421875
-65.115234375,1194.0751953125
-68.10546875,1188.15185546875
-72.23046875,1176.74267578125
-76.2294921875,1160.12646484375
-79.162109375,1139.23291015625
-80.7255859375,1115.48046875
-81.1142578125,1090.3740234375
-80.6884765625,1064.91845703125
-79.71484375,1039.1083984375
-78.3193359375,1011.84814453125
-76.5546875,981.49560546875
-74.462890625,946.84033203125
-72.0498046875,908.0322265625
-69.2353515625,866.9150390625
-65.8515625,826.515625
-61.7451171875,789.8427734375
-56.974609375,758.5712890625
-51.9736328125,732.32666015625
-47.51953125,708.9677734375
-44.46484375,685.66943359375
-43.326171875,660.21923828125
-44.0009765625,631.91455078125
-45.748046875,601.69091796875
-47.5029296875,571.51513671875
-48.349609375,543.4443359375
-47.9765625,518.84375
-46.8134765625,498.02392578125
-45.7275390625,480.2392578125
-45.482421875,463.95849609375
-46.2841796875,447.396484375
-47.7607421875,429.21044921875
-49.296875,409.08447265625
-50.4462890625,387.87451171875
-51.1279296875,367.22412109375
-51.537109375,348.841796875
-51.912109375,333.7587890625
-52.357421875,321.861328125
-52.787109375,311.91748046875
-53.0087890625,302.14013671875
-52.87890625,291.08056640625
-52.4501953125,278.42724609375
-51.9755859375,265.27685546875
-51.755859375,253.65380859375
-51.912109375,245.4599609375
-52.2275390625,241.35888671875
-52.2197265625,240.19482421875
-51.39453125,239.37158203125
-49.5439453125,236.060546875
-46.9541015625,228.6240234375
-44.3642578125,217.47607421875
-42.6748046875,204.94873046875
-42.4794921875,194.25537109375
-43.712890625,188.0087890625
-45.5869140625,186.93017578125
-46.90625,189.40234375
-46.6171875,192.1748046875
-44.37890625,191.97998046875
-40.8310546875,187.17919921875
-37.4072265625,178.53466796875
-35.673828125,168.74169921875
-36.564453125,161.04248046875
-39.8671875,157.66357421875
-44.29296875,158.77783203125
-48.021484375,162.4580078125
-49.5283203125,165.59912109375
-48.2333984375,165.36865234375
-44.6953125,160.4951171875
-40.2763671875,151.79931640625
-36.482421875,141.8125
-34.3330078125,133.72119140625
-34.0703125,130.10107421875
-35.2705078125,131.86328125
-37.205078125,137.802734375
-39.2099609375,144.9736328125
-40.880859375,149.845703125
-42.05078125,149.81396484375
-42.6650390625,144.375
-42.6767578125,135.375
-42.0634765625,126.17236328125
-40.9423828125,120.1220703125
-39.6455078125,119.06982421875
-38.634765625,122.58837890625
-38.287109375,128.3369140625
-38.6689453125,133.34326171875
-39.4892578125,135.46240234375
-40.2294921875,134.1865234375
-40.4326171875,130.49072265625
-39.9453125,126.02685546875
-38.9697265625,122.25146484375
-37.9111328125,119.943359375
-37.123046875,119.19482421875
-36.7197265625,119.68603515625
-36.541015625,120.9970703125
-36.29296875,122.7685546875
-35.767578125,124.69140625
-34.9970703125,126.44580078125
-34.2724609375,127.681640625
-34.044921875,128.072265625
-34.7177734375,127.4208984375
-36.408203125,125.78759765625
-38.7626953125,123.59619140625
-40.966796875,121.58203125
-42.01171875,120.5146484375
-41.1591796875,120.81396484375
-38.359375,122.28125
-34.37109375,124.12841796875
-30.5068359375,125.29833984375
-28.0732421875,124.91943359375
-27.8271484375,122.69873046875
-29.6611328125,119.04736328125
-32.6650390625,114.9130859375
-35.501953125,111.4443359375
-36.9501953125,109.67529296875
-36.4111328125,110.27880859375
-34.1923828125,113.33544921875
-31.3896484375,118.1318359375
-29.357421875,123.18994140625
-29.0263671875,126.70849609375
-30.43359375,127.3583984375
-32.7353515625,125.0283203125
-34.7236328125,121.02001953125
-35.4677734375,117.49169921875
-34.728515625,116.359375
-32.919921875,118.2607421875
-30.724609375,122.15234375
-28.71875,125.8046875
-27.2060546875,126.94677734375
-26.2392578125,124.46435546875
-25.697265625,119.04150390625
-25.3388671875,112.92431640625
-24.9208984375,108.876953125
-24.3740234375,108.828125
-23.8994140625,112.88330078125
-23.853515625,119.2890625
-24.4482421875,125.38330078125
-25.513671875,128.9755859375
-26.5087890625,129.3408203125
-26.8662109375,127.291015625
-26.388671875,124.43212890625
-25.384765625,122.21533203125
-24.4375,121.34375
-23.9619140625,121.697265625
-23.9873046875,122.58544921875
-24.2529296875,123.12158203125
-24.484375,122.599609375
-24.5556640625,120.8056640625
-24.384765625,118.17822265625
-23.73828125,115.69091796875
-22.212890625,114.4306640625
-19.482421875,115.0244140625
-15.6767578125,117.23974609375
-11.5419921875,120.02783203125
-8.224609375,122.041015625
-6.74609375,122.296875
-7.4443359375,120.63232421875
-9.751953125,117.73193359375
-12.453125,114.798828125
-14.3125,113.09619140625
-14.697265625,113.53955078125
-13.8251953125,116.36376953125
-12.5126953125,120.8798828125
-11.6103515625,125.52392578125
-11.4921875,128.390625
-11.884765625,128.1171875
-12.1435546875,124.599609375
-11.689453125,119.10302734375
-10.357421875,113.7109375
-8.4833984375,110.4443359375
-6.71484375,110.44482421875
-5.7080078125,113.5498046875
-5.841796875,118.39013671875
-7.1064453125,122.9501953125
-9.119140625,125.33837890625
-11.2294921875,124.47509765625
-12.7080078125,120.4755859375
-12.9931640625,114.6171875
-11.943359375,108.88720703125
-9.9482421875,105.1875
-7.7587890625,104.5302734375
-6.15234375,106.6171875
-5.6083984375,110.11376953125
-6.1396484375,113.4365234375
-7.3818359375,115.53173828125
-8.8095703125,116.1708984375
-10.0068359375,115.69482421875
-10.837890625,114.5732421875
-11.4111328125,113.15966796875
-11.9140625,111.70361328125
-12.369140625,110.5029296875
-12.5693359375,109.96728515625
-12.2216796875,110.47607421875
-11.193359375,112.13037109375
-9.6923828125,114.59326171875
-8.1875,117.2158203125
-7.1611328125,119.31591796875
-6.8232421875,120.40380859375
-6.9873046875,120.240234375
-7.1884765625,118.83349609375
-6.9794921875,116.48681640625
-6.25390625,113.833984375
-5.328125,111.71923828125
-4.73828125,110.90966796875
-4.845703125,111.798828125
-5.564453125,114.24853515625
-6.396484375,117.62451171875
-6.7529296875,120.96875
-6.3046875,123.26025390625
-5.14453125,123.775390625
-3.6767578125,122.4482421875
-2.3359375,120.0244140625
-1.3388671875,117.7900390625
-0.6416015625,116.962890625
-0.087890625,118.06298828125
0.421875,120.67626953125
0.8603515625,123.73291015625
1.125,126.12060546875
1.1455078125,127.216796875
0.908203125,127.04345703125
0.4375,126.0380859375
-0.2236328125,124.70556640625
-0.9580078125,123.42626953125
-1.50390625,122.4658203125
-1.4814453125,122.02587890625
-0.5693359375,122.20654296875
1.2275390625,122.94287109375
3.4599609375,124.01318359375
5.369140625,125.15771484375
6.26171875,126.20068359375
5.900390625,127.03466796875
4.6767578125,127.46142578125
3.4228515625,127.07421875
2.943359375,125.4140625
3.5693359375,122.33544921875
5.013671875,118.30615234375
6.595703125,114.390625
7.6591796875,111.9130859375
7.8955078125,111.92822265625
7.4306640625,114.6640625
6.67578125,119.19677734375
6.0947265625,123.64013671875
6.0029296875,125.9130859375
6.48046875,124.80126953125
7.3896484375,120.7109375
8.4189453125,115.646484375
9.185546875,112.341796875
9.4111328125,112.982421875
9.0908203125,118.14697265625
8.5615234375,126.443359375
8.3193359375,134.9755859375
8.7041015625,140.48095703125
9.6708984375,140.71923828125
10.82421875,135.49072265625
11.671875,126.76513671875
11.9033203125,117.859375
11.5380859375,112.04638671875
10.896484375,111.2255859375
10.431640625,115.1904296875
10.48828125,121.79443359375
11.080078125,127.98046875
11.8125,131.19775390625
12.064453125,130.5087890625
11.373046875,126.8173828125
9.79296875,122.2177734375
7.9912109375,118.916015625
6.9306640625,118.3046875
7.3076171875,120.52490234375
9.09765625,124.58251953125
11.5380859375,128.89501953125
13.5634765625,131.9755859375
14.39453125,132.95263671875
13.9033203125,131.76171875
12.56640625,129.0302734375
11.0888671875,125.759765625
9.9853515625,122.9482421875
9.3349609375,121.26953125
8.904296875,120.88671875
8.5107421875,121.4453125
8.384765625,122.27490234375
9.224609375,122.73779296875
11.802734375,122.52783203125
16.30078125,121.79345703125
21.8203125,121.02490234375
26.4794921875,120.77490234375
28.20703125,121.31591796875
25.8447265625,122.3955078125
19.9033203125,123.26513671875
12.4755859375,123.00341796875
6.3125,120.96923828125
3.59375,117.19873046875
5.02734375,112.52587890625
9.693359375,108.337890625
15.56640625,105.970703125
20.37890625,106.056640625
22.4296875,108.22705078125
21.1240234375,111.36474609375
17.134765625,114.1875
12.09375,115.783203125
7.9013671875,115.87158203125
5.908203125,114.78173828125
6.375,113.208984375
8.5009765625,111.8525390625
10.9716796875,111.08984375
12.6650390625,110.86669921875
13.080078125,110.86669921875
12.3583984375,110.84521484375
11,110.83642578125
9.5419921875,111.07763671875
8.369140625,111.732421875
7.6494140625,112.66259765625
7.376953125,113.4140625
7.4287109375,113.44189453125
7.615234375,112.453125
7.7197265625,110.68701171875
7.5595703125,108.93310546875
7.0693359375,108.197265625
6.4091796875,109.1953125
5.9638671875,111.90576171875
6.197265625,115.390625
7.359375,118.00830078125
9.25,118.08837890625
11.216796875,114.8642578125
12.4560546875,109.119140625
12.4453125,103.03125
11.2314453125,99.17431640625
9.443359375,99.23876953125
7.9580078125,103.19482421875
7.4609375,109.36181640625
8.1328125,115.314453125
9.626953125,119.07958984375
11.3046875,119.890625
12.529296875,118.15283203125
12.9169921875,114.85986328125
12.439453125,111.0244140625
11.3955078125,107.4482421875
10.294921875,104.74267578125
9.642578125,103.37109375
9.73046875,103.5732421875
10.4951171875,105.25146484375
11.5302734375,107.896484375
12.25,110.6513671875
12.1484375,112.56103515625
11.0107421875,112.92822265625
9,111.6513671875
6.5625,109.31298828125
4.259765625,106.9365234375
2.6318359375,105.49365234375
2.0615234375,105.44775390625
2.65234375,106.5869140625
4.162109375,108.26806640625
6.0712890625,109.84521484375
7.8125,110.98486328125
9.013671875,111.69921875
9.5966796875,112.1552734375
9.701171875,112.42626953125
9.5078125,112.35888671875
9.1513671875,111.6416015625
8.7421875,110.0419921875
8.4404296875,107.6806640625
8.4697265625,105.166015625
9.0234375,103.49853515625
10.1064453125,103.7158203125
11.4755859375,106.3388671875
12.7314453125,110.859375
13.5224609375,115.65283203125
13.7236328125,118.57763671875
13.4892578125,118.08544921875
13.12890625,114.20654296875
12.9091796875,108.7509765625
12.9013671875,104.49609375
12.9873046875,103.76220703125
12.966796875,107.1455078125
12.70703125,113.1669921875
12.2421875,119.0849609375
11.76953125,122.39111328125
11.5380859375,122.1064453125
11.673828125,119.13818359375
12.013671875,115.61474609375
12.1025390625,113.66064453125
11.447265625,114.3330078125
9.869140625,117.20263671875
7.72265625,120.70556640625
5.75,123.02197265625
4.6689453125,123.02978515625
4.7666015625,120.8505859375
5.75390625,117.7490234375
6.9580078125,115.466796875
7.68359375,115.35693359375
7.5009765625,117.71875
6.34765625,121.6865234375
4.4658203125,125.69921875
2.30859375,128.30322265625
0.41015625,128.826171875
-0.7578125,127.552734375
-0.990234375,125.390625
-0.4658203125,123.3408203125
0.2919921875,122.11572265625
0.7080078125,122.04736328125
0.4609375,123.13037109375
-0.341796875,125.05517578125
-1.24609375,127.24365234375
-1.703125,128.9501953125
-1.365234375,129.478515625
-0.2685546875,128.4443359375
1.1552734375,125.97509765625
2.2763671875,122.72802734375
2.544921875,119.6591796875
1.791015625,117.6943359375
0.31640625,117.427734375
-1.19140625,118.93310546875
-2,121.6552734375
-1.689453125,124.466796875
-0.3818359375,126.03564453125
1.3408203125,125.490234375
2.7548828125,122.97314453125
3.3515625,119.6865234375
3.04296875,117.31591796875
2.158203125,117.1396484375
1.2734375,119.3056640625
0.9619140625,122.66796875
1.546875,125.3525390625
2.939453125,125.79541015625
4.6240234375,123.64990234375
5.849609375,119.92822265625
5.986328125,116.32568359375
4.9130859375,114.212890625
3.1416015625,113.9541015625
1.5361328125,114.88720703125
0.7939453125,115.89697265625
1.05078125,116.16650390625
1.9052734375,115.6533203125
2.7880859375,114.96484375
3.384765625,114.78369140625
3.7939453125,115.3115234375
4.3271484375,116.18408203125
5.1572265625,116.85400390625
6.107421875,117.03662109375
6.78125,116.861328125
6.8798828125,116.673828125
6.439453125,116.7314453125
5.771484375,117.06103515625
5.228515625,117.55322265625
4.9833984375,118.12255859375
4.9697265625,118.74072265625
4.9921875,119.2958984375
4.90234375,119.4677734375
4.7001953125,118.86962890625
4.490234375,117.4267578125
4.333984375,115.669921875
4.17578125,114.5458984375
3.93359375,114.76806640625
3.62890625,116.19921875
3.4345703125,117.81201171875
3.5888671875,118.37060546875
4.248046875,117.37109375
5.4091796875,115.51611328125
6.8818359375,114.24169921875
8.3515625,114.5966796875
9.4814453125,116.326171875
10.0361328125,117.95654296875
9.9931640625,117.873046875
9.556640625,115.615234375
9.0537109375,112.39892578125
8.732421875,110.4638671875
8.5966796875,111.6826171875
8.4052734375,116.30615234375
7.8896484375,122.640625
7.0458984375,127.8623046875
6.2763671875,129.53955078125
6.1416015625,126.9423828125
6.7314453125,121.4072265625
7.0517578125,115.61474609375
4.943359375,112.248046875
-2.2255859375,112.75048828125
-16.41015625,116.76904296875
-37.8740234375,122.521484375
-64.8701171875,127.818359375
-94.1259765625,131.1005859375
-121.89453125,131.94677734375
-145.0146484375,130.9365234375
-161.56640625,129.17236328125
-170.998046875,127.7685546875
-173.921875,127.521484375
-171.8291015625,128.74267578125
-166.7861328125,131.21875
-161.0615234375,134.28369140625
-156.6904296875,137.06689453125
-155.0546875,138.87255859375
-156.568359375,139.47265625
-160.60546875,139.10888671875
-165.6943359375,138.2294921875
-170.017578125,137.1953125
-172.0751953125,136.1591796875
-171.2822265625,135.1572265625
-168.203125,134.24267578125
-164.2802734375,133.4912109375
-161.1845703125,132.8798828125
-160.109375,132.20947265625
-161.330078125,131.23681640625
-164.201171875,129.90673828125
-167.529296875,128.4638671875
-170.103515625,127.3203125
-171.1630859375,126.77099609375
-170.595703125,126.77197265625
-168.900390625,126.93798828125
-166.9189453125,126.76953125
-165.5029296875,125.9833984375
-165.1767578125,124.73193359375
-165.9296875,123.53955078125
-167.2744140625,122.982421875
-168.55078125,123.32861328125
-169.2783203125,124.39794921875
-169.318359375,125.68994140625
-168.7783203125,126.68505859375
-167.783203125,127.10888671875
-166.40234375,127.0673828125
-164.76953125,126.92041015625
-163.2109375,126.9658203125
-162.232421875,127.1435546875
-162.3046875,127.07861328125
-163.587890625,126.4833984375
-165.7919921875,125.5166015625
-168.2939453125,124.73046875
-170.427734375,124.64794921875
-171.7451171875,125.38134765625
-172.1044921875,126.62548828125
-171.5849609375,128.001953125
-170.3583984375,129.44140625
-168.6767578125,131.24365234375
-166.8994140625,133.76904296875
-165.4873046875,136.9599609375
-164.861328125,140.08837890625
-165.1845703125,141.9580078125
-166.2314453125,141.5263671875
-167.4658203125,138.5380859375
-168.2958984375,133.72998046875
-168.3720703125,128.44921875
-167.8271484375,123.990234375
-167.2880859375,121.08740234375
-167.630859375,119.81005859375
-169.52734375,119.76513671875
-172.9375,120.4375
-176.9638671875,121.48046875
-180.1630859375,122.7763671875
-181.2421875,124.220703125
-179.7314453125,125.42578125
-176.2333984375,125.66357421875
-172.1455078125,124.21728515625
-168.994140625,120.9267578125
-167.767578125,116.49951171875
-168.599609375,112.3330078125
-170.880859375,109.90478515625
-173.6572265625,110.10498046875
-176.0556640625,112.84423828125
-177.5771484375,117.10302734375
-178.23828125,121.3720703125
-178.4951171875,124.29345703125
-179.041015625,125.193359375
-180.42578125,124.25439453125
-182.703125,122.26416015625
-185.28125,120.14697265625
-187.1220703125,118.58251953125
-187.24609375,117.8701171875
-185.26171875,118.00439453125
-181.6064453125,118.826171875
-177.41015625,120.11962890625
-174.05859375,121.65380859375
-172.7001953125,123.17822265625
-173.8310546875,124.3916015625
-177.115234375,124.9765625
-181.5068359375,124.732421875
-185.6298828125,123.76025390625
-188.271484375,122.4775390625
-188.74609375,121.39501953125
-187.05859375,120.82275390625
-183.8681640625,120.7509765625
-180.306640625,120.92578125
-177.646484375,120.974609375
-176.8681640625,120.49072265625
-178.2490234375,119.107421875
-181.205078125,116.65283203125
-184.462890625,113.34375
-186.58203125,109.92431640625
-186.580078125,107.56201171875
-184.419921875,107.4296875
-181.0322265625,110.08349609375
-177.84375,114.93994140625
-176.0390625,120.255859375
-175.9951171875,123.787109375
-177.21484375,123.88916015625
-178.7431640625,120.4736328125
-179.7333984375,115.20458984375
-179.869140625,110.6796875
-179.4345703125,108.9892578125
-179.119140625,110.52880859375
-179.5859375,113.82666015625
-181.0341796875,116.5107421875
-183.0234375,116.73583984375
-184.677734375,114.1708984375
-185.171875,109.99267578125
-184.1728515625,106.0615234375
-181.974609375,103.88427734375
-179.3583984375,103.947265625
-177.2294921875,105.67431640625
-176.2666015625,107.890625
-176.626953125,109.47216796875
-177.892578125,109.83251953125
-179.265625,109.06201171875
-179.931640625,107.75
-179.447265625,106.658203125
-177.9384765625,106.3369140625
-176.08203125,106.849609375
-174.822265625,107.7294921875
-174.9072265625,108.2802734375
-176.453125,108.0498046875
-178.79296875,107.162109375
-180.7275390625,106.2353515625
-181.09765625,105.919921875
-179.3251953125,106.4375
-175.71875,107.455078125
-171.3876953125,108.3583984375
-167.8515625,108.6669921875
-166.4140625,108.3134765625
-167.5869140625,107.6669921875
-170.80078125,107.30078125
-174.611328125,107.60986328125
-177.3349609375,108.5263671875
-177.8115234375,109.5283203125
-175.9296875,109.97412109375
-172.6376953125,109.5380859375
-169.4541015625,108.4443359375
-167.71875,107.35986328125
-167.9970703125,107.021484375
-169.923828125,107.81005859375
-172.5205078125,109.52734375
-174.7353515625,111.4599609375
-175.904296875,112.6748046875
-175.9296875,112.38427734375
-175.1884765625,110.27490234375
-174.2587890625,106.66748046875
-173.6064453125,102.447265625
-173.3681640625,98.77587890625
-173.38671875,96.70556640625
-173.400390625,96.83349609375
-173.25,99.09130859375
-172.904296875,102.70458984375
-172.4248046875,106.4248046875
-171.904296875,108.97314453125
-171.4677734375,109.56591796875
-171.244140625,108.2275390625
-171.333984375,105.75537109375
-171.7392578125,103.40869140625
-172.3271484375,102.44140625
-172.8564453125,103.5869140625
-173.0634765625,106.65087890625
-172.7880859375,110.52197265625
-172.0283203125,113.72265625
-170.9443359375,115.19287109375
-169.7607421875,114.7734375
-168.6484375,113.087890625
-167.6806640625,111.03369140625
-166.865234375,109.29931640625
-166.22265625,108.1142578125
-165.8623046875,107.27001953125
-165.955078125,106.357421875
-166.6083984375,105.10693359375
-167.71484375,103.60791015625
-168.87890625,102.29052734375
-169.5078125,101.7587890625
-169.0625,102.5390625
-167.37890625,104.74853515625
-164.8916015625,107.78564453125
-162.568359375,110.38623046875
-161.51953125,111.197265625
-162.4609375,109.61767578125
-165.2998046875,106.31103515625
-169.1357421875,102.97705078125
-172.66015625,101.443359375
-174.7119140625,102.580078125
-174.7138671875,105.68994140625
-172.80859375,108.8232421875
-169.7353515625,109.91162109375
-166.509765625,108.03857421875
-164.080078125,104.03662109375
-163.0703125,100.0390625
-163.6728515625,98.287109375
-165.662109375,99.88720703125
-168.4560546875,104.1826171875
-171.21875,109.10205078125
-173.0625,112.29296875
-173.365234375,112.408203125
-172.0400390625,109.78466796875
-169.6025390625,106.150390625
-166.93359375,103.5517578125
-164.8701171875,103.18310546875
-163.8271484375,104.82861328125
-163.6650390625,107.1767578125
-163.8544921875,108.73583984375
-163.8369140625,108.70849609375
-163.3369140625,107.333984375
-162.4267578125,105.58447265625
-161.3359375,104.482421875
-160.236328125,104.47412109375
-159.16796875,105.220703125
-158.1279296875,105.89990234375
-157.2158203125,105.8115234375
-156.697265625,104.8466796875
-156.876953125,103.46826171875
-157.9228515625,102.2421875
-159.7216796875,101.31005859375
-161.876953125,100.24560546875
-163.8642578125,98.3994140625
-165.240234375,95.51416015625
-165.7939453125,92.1640625
-165.6162109375,89.669921875
-165.0673828125,89.44091796875
-164.6923828125,92.12158203125
-165.0439453125,97.0390625
-166.466796875,102.29931640625
-168.9208984375,105.51220703125
-171.923828125,104.86328125
-174.56640625,100.0634765625
-175.5595703125,92.73779296875
-173.3310546875,85.93701171875
-166.29296875,82.77880859375
-153.3056640625,84.8388671875
-134.193359375,91.20654296875
-110.0546875,98.9296875
-83.1748046875,104.6708984375
-56.5078125,106.5498046875
-32.92578125,105.00341796875
-14.5517578125,102.18359375
-2.400390625,100.41796875
3.6552734375,100.8017578125
4.7001953125,102.79296875
2.447265625,104.87255859375
-1.2099609375,105.6416015625
-4.681640625,104.61376953125
-7.07421875,102.33203125
-8.2724609375,99.9580078125
-8.6728515625,98.65869140625
-8.7177734375,99.13427734375
-8.5859375,101.40087890625
-8.189453125,104.869140625
-7.4384765625,108.66064453125
-6.4580078125,112.08642578125
-5.5537109375,115.09521484375
-4.97265625,118.4013671875
-4.71875,123.130859375
-4.5947265625,130.1083984375
-4.4140625,139.20947265625
-4.1513671875,149.1884765625
-3.9228515625,158.08740234375
-3.8359375,164.01123046875
-3.849609375,165.9013671875
-3.7587890625,163.94677734375
-3.2841796875,159.4384765625
-2.2216796875,154.1953125
-0.5830078125,149.85400390625
1.380859375,147.34130859375
3.2763671875,146.689453125
4.791015625,147.2255859375
5.859375,148.021484375
6.6455078125,148.33740234375
7.349609375,147.7890625
7.986328125,146.23583984375
8.341796875,143.66943359375
8.12109375,140.271484375
7.17578125,136.53759765625
5.6416015625,133.236328125
3.90625,131.15087890625
2.4013671875,130.71630859375
1.37890625,131.7373046875
0.8056640625,133.35205078125
0.4775390625,134.3701171875
0.23046875,133.8818359375
0.0927734375,131.80517578125
0.2373046875,128.962890625
0.8115234375,126.57763671875
1.7978515625,125.48974609375
2.9951171875,125.6357421875
4.1298828125,126.13720703125
4.994140625,125.900390625
5.595703125,124.3388671875
6.1474609375,121.748046875
6.9404296875,119.1318359375
8.05859375,117.57421875
9.169921875,117.55810546875
9.5693359375,118.673828125
8.5107421875,119.8740234375
5.7021484375,120.0712890625
1.595703125,118.6748046875
-2.6962890625,115.74560546875
-5.8681640625,111.7861328125
-6.9931640625,107.40771484375
-5.927734375,103.20166015625
-3.3798828125,99.8212890625
-0.5634765625,97.9951171875
1.3115234375,98.2197265625
1.568359375,100.25390625
0.3056640625,102.89599609375
-1.712890625,104.36083984375
-3.4658203125,103.18115234375
-4.2119140625,99.1162109375
-3.79296875,93.47705078125
-2.56640625,88.619140625
-1.0703125,86.8037109375
0.294921875,89.029296875
1.3486328125,94.43896484375
2.052734375,100.58642578125
2.4033203125,104.4716796875
2.4365234375,103.90087890625
2.2998046875,98.5791015625
2.2373046875,90.3916015625
2.4892578125,82.6484375
3.107421875,78.58544921875
3.8857421875,79.7939453125
4.4716796875,85.4306640625
4.60546875,92.6640625
4.2666015625,98.1474609375
3.60546875,99.705078125
2.7412109375,97.30126953125
1.6455078125,92.7861328125
0.2138671875,88.72998046875
-1.5224609375,87.03369140625
-3.2314453125,88.13671875
-4.333984375,91.08544921875
-4.2890625,94.22216796875
-2.9296875,96.01416015625
-0.6220703125,95.650390625
1.8447265625,93.29541015625
3.619140625,90.00244140625
4.1640625,87.27783203125
3.4638671875,86.4033203125
1.9560546875,87.8291015625
0.2841796875,90.96923828125
-1.01171875,94.5380859375
-1.70703125,97.205078125
-1.9111328125,98.220703125
-1.953125,97.72412109375
-2.134765625,96.6201171875
-2.5537109375,96.06689453125
-3.021484375,96.83642578125
-3.1748046875,98.92333984375
-2.69140625,101.591796875
-1.5205078125,103.7958984375
0.0068359375,104.66064453125
1.3056640625,103.802734375
1.79296875,101.42578125
1.1708984375,98.27392578125
-0.4228515625,95.4345703125
-2.4638671875,94.00244140625
-4.228515625,94.65380859375
-5.0634765625,97.2900390625
-4.6005859375,100.9453125
-2.8974609375,104.09716796875
-0.484375,105.33447265625
1.75390625,104.06787109375
2.859375,100.8994140625
2.25,97.33203125
0.1025390625,94.94140625
-2.5849609375,94.48828125
-4.42578125,95.5849609375
-4.3671875,97.154296875
-2.2705078125,98.31005859375
1.0185546875,98.97412109375
4.1357421875,99.767578125
5.90625,101.30078125
5.8740234375,103.47216796875
4.4501953125,105.35595703125
2.6201171875,105.80908203125
1.4169921875,104.3515625
1.4052734375,101.67333984375
2.48828125,99.337890625
4.0546875,98.8740234375
5.353515625,100.8369140625
5.8447265625,104.42529296875
5.3779296875,107.8564453125
4.1748046875,109.294921875
2.64453125,107.8212890625
1.1669921875,103.92138671875
-0.0458984375,99.23681640625
-0.95703125,95.69140625
-1.5712890625,94.50244140625
-1.8291015625,95.62255859375
-1.5751953125,97.89453125
-0.70703125,99.74755859375
0.6484375,100.005859375
2.03515625,98.39453125
2.8544921875,95.54150390625
2.6572265625,92.576171875
1.43359375,90.5439453125
-0.38671875,89.9365234375
-2.169921875,90.5009765625
-3.408203125,91.36376953125
-3.90234375,91.4462890625
-3.716796875,90.02783203125
-2.994140625,87.197265625
-1.7939453125,83.9462890625
-0.091796875,81.791015625
2.041015625,82.04296875
4.291015625,85.01025390625
6.080078125,89.58837890625
6.796875,93.640625
6.126953125,95.06494140625
4.30078125,92.95751953125
2.0791015625,88.15576171875
0.4619140625,82.87548828125
0.2685546875,79.63232421875
1.755859375,79.966796875
4.494140625,83.634765625
7.5224609375,88.72607421875
9.7373046875,92.68017578125
10.33984375,93.59765625
9.15625,91.11328125
6.6923828125,86.42333984375
3.9091796875,81.5654296875
1.822265625,78.3505859375
1.099609375,77.509765625
1.8212890625,78.4794921875
3.482421875,79.93212890625
5.2265625,80.69189453125
6.166015625,80.44091796875
5.72265625,79.798828125
3.822265625,79.76806640625
0.8857421875,80.98095703125
-2.35546875,83.26025390625
-5.0927734375,85.75244140625
-6.654296875,87.494140625
-6.6962890625,87.9755859375
-5.3486328125,87.30517578125
-3.1865234375,85.95166015625
-1.00390625,84.41943359375
0.58984375,83.13818359375
1.4697265625,82.5322265625
2.046875,82.9609375
2.9931640625,84.44287109375
4.810546875,86.37353515625
7.447265625,87.5947265625
10.240234375,86.935546875
12.2001953125,83.98681640625
12.51953125,79.5771484375
10.970703125,75.49755859375
8.0224609375,73.5078125
4.6611328125,74.30126953125
2.005859375,77.11865234375
0.9052734375,80.2548828125
1.591796875,82.03369140625
3.58984375,81.6416015625
5.9013671875,79.36376953125
7.439453125,76.20263671875
7.4765625,73.2265625
5.9560546875,71.1044921875
3.5244140625,70.05224609375
1.23828125,70.021484375
0.07421875,70.8740234375
0.4794921875,72.3974609375
2.1630859375,74.29931640625
4.263671875,76.28515625
5.744140625,78.2431640625
5.880859375,80.2705078125
4.5849609375,82.41162109375
2.3955078125,84.28515625
0.2060546875,85.04931640625
-1.1357421875,83.91845703125
-1.1357421875,80.9033203125
0.212890625,77.11376953125
2.501953125,74.28955078125
5.1337890625,73.77392578125
7.57421875,75.6083984375
9.5205078125,78.37158203125
10.8740234375,79.97265625
11.6376953125,78.9111328125
11.826171875,75.23193359375
11.470703125,70.5390625
10.6923828125,67.08056640625
9.7392578125,66.50146484375
8.9013671875,68.95947265625
8.3056640625,73.06005859375
7.80078125,76.59228515625
7.0458984375,77.6552734375
5.7880859375,75.65478515625
4.138671875,71.63671875
2.677734375,67.701171875
2.2275390625,65.77587890625
3.41015625,66.48193359375
6.22265625,68.8935546875
9.8779296875,71.27197265625
13.0966796875,72.2001953125
14.6875,71.31689453125
14.126953125,69.3125
11.8056640625,67.38134765625
8.849609375,66.5322265625
6.595703125,67.158203125
5.974609375,69.015625
7.072265625,71.54443359375
9.0888671875,74.29443359375
10.7705078125,77.2021484375
11.0859375,80.5791015625
9.7724609375,84.8583984375
7.4443359375,90.22607421875
5.2158203125,96.31005859375
4.1044921875,102.08203125
4.529296875,106.109375
6.181640625,107.17041015625
8.248046875,104.9560546875
9.841796875,100.3916015625
10.361328125,95.34912109375
9.6767578125,91.8857421875
8.115234375,91.359375
6.2646484375,93.751953125
4.70703125,97.5732421875
3.8046875,100.5107421875
3.6474609375,100.63037109375
4.125,97.4482421875
5.033203125,92.18994140625
6.1484375,87.0546875
7.29296875,83.98681640625
8.373046875,83.7353515625
9.376953125,85.71728515625
10.3525390625,88.576171875
11.3525390625,90.92626953125
12.400390625,91.8251953125
13.486328125,90.91455078125
14.5927734375,88.37744140625
15.7216796875,84.8955078125
16.880859375,81.5673828125
18.0458984375,79.64794921875
19.173828125,80.0439453125
20.224609375,82.78515625
21.2099609375,86.8671875
22.177734375,90.66455078125
23.166015625,92.7080078125
24.12109375,92.3740234375
24.8017578125,90.103515625
24.833984375,87.08349609375
23.8759765625,84.638671875
21.88671875,83.66162109375
19.287109375,84.29248046875
16.8603515625,85.908203125
15.3935546875,87.4501953125
15.2802734375,87.97509765625
16.3203125,87.1875
17.845703125,85.60888671875
19.0927734375,84.24853515625
19.5908203125,84.03662109375
19.322265625,85.43017578125
18.595703125,88.3935546875
17.73828125,92.5263671875
16.8388671875,97.1298828125
15.744140625,101.22509765625
14.294921875,103.76318359375
12.5927734375,104.10888671875
11.0244140625,102.5830078125
10.0078125,100.69384765625
9.6904296875,100.736328125
9.90234375,104.77685546875
10.3935546875,113.56640625
11.0849609375,126.20166015625
12.078125,140.8876953125
13.4296875,156.26123046875
14.91015625,172.22802734375
15.947265625,189.7744140625
15.837890625,210.1064453125
14.189453125,233.94482421875
11.376953125,261.47021484375
8.662109375,292.9052734375
7.693359375,329.2001953125
9.626953125,372.19677734375
14.3701171875,423.87890625
20.4208984375,485.01513671875
25.4541015625,554.00537109375
27.3017578125,626.77099609375
24.9130859375,697.84716796875
18.775390625,762.13916015625
10.6357421875,816.453125
2.6923828125,860.19189453125
-3.3173828125,895.08056640625
-6.5830078125,924.1767578125
-7.140625,950.5458984375
-5.52734375,976.11083984375
-2.490234375,1001.18701171875
1.05078125,1024.85791015625
4.03515625,1045.84521484375
5.494140625,1063.27978515625
5.0078125,1077.013671875
3.013671875,1087.51953125
0.6669921875,1095.63623046875
-0.744140625,1102.3056640625
-0.48828125,1108.36669921875
1.19140625,1114.46142578125
3.2744140625,1121.0478515625
4.6279296875,1128.33642578125
4.755859375,1136.076171875
4.1171875,1143.44921875
3.734375,1149.42236328125
4.388671875,1153.39208984375
5.953125,1155.63232421875
7.3994140625,1157.14990234375
7.4599609375,1159.11376953125
5.408203125,1162.3115234375
1.462890625,1166.91845703125
-3.3896484375,1172.498046875
-7.94140625,1178.03515625
-11.2783203125,1182.0634765625
-13.0673828125,1183.1416015625
-13.54296875,1180.61474609375
-13.279296875,1175.21337890625
-12.86328125,1168.935546875
-12.5908203125,1164.1220703125
-12.326171875,1162.212890625
-11.6337890625,1162.91064453125
-10.1806640625,1164.23974609375
-8.138671875,1163.4345703125
-6.3154296875,1158.12158203125
-5.83203125,1147.126953125
-7.4765625,1130.59130859375
-11.115234375,1109.556640625
-15.5966796875,1085.4482421875
-19.248046875,1059.65771484375
-20.69921875,1033.21728515625
-19.509765625,1006.470703125
-16.26953125,978.8818359375
-12.201171875,949.21533203125
-8.578125,916.171875
-6.248046875,879.19140625
-5.4150390625,838.947265625
-5.658203125,797.21875
-6.1083984375,756.21728515625
-5.7939453125,717.72705078125
-4.0322265625,682.46337890625
-0.7919921875,649.92578125
3.2373046875,618.8046875
6.9619140625,587.8046875
9.439453125,556.421875
10.3642578125,525.22802734375
10.1865234375,495.40185546875
9.814453125,467.8662109375
10.0966796875,442.60791015625
11.3583984375,418.64599609375
13.2333984375,394.6005859375
14.8681640625,369.44970703125
15.3896484375,343.0576171875
14.42578125,316.25341796875
12.3330078125,290.49853515625
10.021484375,267.31494140625
8.4326171875,247.7138671875
8.021484375,231.79052734375
8.587890625,218.59423828125
9.5126953125,206.37353515625
10.2158203125,193.2236328125
10.4814453125,177.96142578125
10.4931640625,160.7939453125
10.603515625,143.34423828125
11.033203125,127.9287109375
11.6552734375,116.45166015625
12.0302734375,109.5146484375
11.6591796875,106.15185546875
10.318359375,104.32275390625
8.255859375,101.88330078125
6.1201171875,97.55322265625
4.6845703125,91.41064453125
4.494140625,84.6826171875
5.6103515625,79.0185546875
7.6416015625,75.62451171875
10.005859375,74.69287109375
12.240234375,75.35791015625
14.1357421875,76.2080078125
15.58203125,76.0302734375
16.3466796875,74.37841796875
16.013671875,71.69921875
14.2421875,69.02001953125
11.1328125,67.380859375
7.4228515625,67.29638671875
4.2490234375,68.537109375
2.6328125,70.3115234375
3.0244140625,71.7236328125
5.1279296875,72.18896484375
8.1376953125,71.59326171875
11.1123046875,70.1767578125
13.330078125,68.3125
14.416015625,66.3505859375
14.3046875,64.60693359375
13.142578125,63.42041015625
11.25,63.1640625
9.09375,64.1083984375
7.1875,66.1865234375
5.9443359375,68.8076171875
5.5068359375,70.908203125
5.6953125,71.3125
6.0771484375,69.29345703125
6.146484375,65.02734375
5.5625,59.6484375
4.3134765625,54.77001953125
2.7333984375,51.6787109375
1.3056640625,50.673828125
0.4248046875,51.0224609375
0.2265625,51.55224609375
0.6142578125,51.44140625
1.4072265625,50.6318359375
2.466796875,49.669921875
3.69921875,49.13720703125
4.96484375,49.09716796875
6.0439453125,48.890625
6.728515625,47.5
6.9541015625,44.26611328125
6.8505859375,39.5029296875
6.630859375,34.5400390625
6.4541015625,31.11328125
6.34765625,30.453125
6.3017578125,32.62744140625
6.3857421875,36.50927734375
6.8037109375,40.31982421875
7.748046875,42.4482421875
9.1962890625,42.1748046875
10.77734375,39.95556640625
11.9189453125,37.126953125
12.2001953125,35.19970703125
11.681640625,35.14794921875
10.9169921875,37.0693359375
10.595703125,40.24609375
11.046875,43.43359375
11.98046875,45.23486328125
12.66796875,44.56884765625
12.453125,41.17431640625
11.2314453125,35.86376953125
9.5556640625,30.24169921875
8.2607421875,25.93603515625
7.841796875,23.79736328125
8.044921875,23.5673828125
8.0244140625,24.18505859375
6.9873046875,24.50439453125
4.853515625,23.98828125
2.4453125,22.908203125
1.005859375,21.94287109375
1.376953125,21.50146484375
3.419921875,21.35498046875
6.1005859375,20.884765625
8.12109375,19.69384765625
8.6669921875,18.05712890625
7.744140625,16.796875
6.015625,16.66064453125
4.3671875,17.67529296875
3.5478515625,18.9990234375
3.994140625,19.37890625
5.7822265625,17.91064453125
8.568359375,14.60009765625
11.5400390625,10.39013671875
13.572265625,6.6728515625
13.66015625,4.57568359375
11.453125,4.45654296875
7.5830078125,5.84619140625
3.5048828125,7.78271484375
0.880859375,9.31396484375
0.8212890625,9.91650390625
3.365234375,9.64990234375
7.47265625,8.966796875
11.5234375,8.310546875
14.0478515625,7.83056640625
14.369140625,7.40771484375
12.8212890625,6.90966796875
10.4189453125,6.3916015625
8.287109375,6.04931640625
7.134765625,6.00732421875
7.0458984375,6.154296875
7.6298828125,6.22705078125
8.314453125,6.09228515625
8.642578125,5.962890625
8.4091796875,6.3046875
7.6865234375,7.44140625
6.755859375,9.18310546875
6.029296875,10.82275390625
5.9267578125,11.57470703125
6.6962890625,11.1279296875
8.2353515625,9.8955078125
10.0166015625,8.81689453125
11.2392578125,8.869140625
11.1689453125,10.56982421875
9.5087890625,13.693359375
6.587890625,17.328125
3.3017578125,20.23046875
0.79296875,21.33544921875
0.033203125,20.19482421875
1.4541015625,17.18408203125
4.7958984375,13.38232421875
9.2568359375,10.181640625
13.8466796875,8.783203125
17.748046875,9.75537109375
20.46875,12.80517578125
21.7978515625,16.83642578125
21.6953125,20.29150390625
20.2783203125,21.720703125
17.931640625,20.4072265625
15.3935546875,16.7978515625
13.5703125,12.48486328125
13.095703125,9.62841796875
13.9140625,9.94775390625
15.255859375,13.771484375
16.115234375,19.7158203125
15.8857421875,25.27001953125
14.71875,28.01708984375
13.3486328125,26.84423828125
12.5400390625,22.49853515625
12.578125,17.22119140625
13.1103515625,13.591796875
13.46875,13.224609375
13.1455078125,15.98193359375
12.15234375,20.134765625
11.015625,23.32470703125
10.455078125,23.7958984375
10.9521484375,21.26708984375
12.4775390625,16.99267578125
14.515625,12.96923828125
16.3466796875,10.8037109375
17.3935546875,10.94384765625
17.4189453125,12.68017578125
16.564453125,14.7578125
15.21484375,16.0849609375
13.8056640625,16.18994140625
12.6572265625,15.2724609375
11.8837890625,13.93603515625
11.4580078125,12.7802734375
11.310546875,12.08984375
11.4306640625,11.787109375
11.90234375,11.58447265625
12.8681640625,11.1875
14.4248046875,10.45458984375
16.451171875,9.47216796875
18.4609375,8.529296875
19.650390625,8.009765625
19.220703125,8.23291015625
16.8388671875,9.33740234375
12.9951171875,11.181640625
8.9501953125,13.3154296875
6.279296875,15.10888671875
6.1865234375,16.01123046875
8.921875,15.82958984375
13.603515625,14.8798828125
18.5693359375,13.89306640625
22.1142578125,13.65625
23.228515625,14.548828125
21.9453125,16.24755859375
19.18359375,17.833984375
16.234375,18.28271484375
14.232421875,17.05126953125
13.7919921875,14.45361328125
14.9453125,11.55419921875
17.2333984375,9.62353515625
19.9140625,9.458984375
22.1484375,11.0048828125
23.25390625,13.51025390625
22.939453125,16.052734375
21.48828125,17.99951171875
19.6796875,19.09375
18.4462890625,19.25244140625
18.3876953125,18.41064453125
19.470703125,16.58203125
21.060546875,14.05419921875
22.2890625,11.4599609375
22.509765625,9.59326171875
21.5986328125,9.0244140625
19.9873046875,9.74951171875
18.4609375,11.16943359375
17.8154296875,12.45068359375
18.5009765625,13.02294921875
20.3359375,12.798828125
22.5126953125,11.99072265625
23.9609375,10.73291015625
23.9345703125,8.88134765625
22.4658203125,6.19482421875
20.408203125,2.77197265625
19.00390625,-0.65478515625
19.23046875,-2.9033203125
21.2705078125,-2.9580078125
24.40625,-0.6328125
27.3544921875,3.19091796875
28.873046875,6.93359375
28.3115234375,9.08642578125
25.892578125,8.982421875
22.6162109375,7.17333984375
19.8388671875,5.13720703125
18.693359375,4.42041015625
19.6083984375,5.697265625
22.109375,8.39990234375
25.052734375,11.17919921875
27.19140625,12.79248046875
27.7998046875,12.783203125
27.0068359375,11.52783203125
25.6474609375,9.8115234375
24.7099609375,8.3505859375
24.7666015625,7.556640625
25.689453125,7.5439453125
26.830078125,8.22900390625
27.4736328125,9.40673828125
27.236328125,10.74609375
26.224609375,11.74462890625
24.8935546875,11.78515625
23.7470703125,10.43359375
23.095703125,7.8681640625
22.9794921875,5.041015625
23.29296875,3.26025390625
23.9521484375,3.3564453125
24.921875,5.05712890625
26.1064453125,7.08740234375
27.224609375,7.958984375
27.8603515625,6.89208984375
27.7041015625,4.27392578125
26.763671875,1.41357421875
25.4033203125,-0.22314453125
24.1337890625,0.14306640625
23.3349609375,2.14404296875
23.080078125,4.48486328125
23.17578125,5.69189453125
23.3125,4.91650390625
23.2333984375,2.29736328125
22.7802734375,-1.22216796875
21.8828125,-4.404296875
20.52734375,-6.2412109375
18.79296875,-6.32177734375
16.9287109375,-4.94580078125
15.4052734375,-2.96240234375
14.77734375,-1.39111328125
15.3935546875,-0.97900390625
17.1328125,-1.86572265625
19.3759765625,-3.5458984375
21.2705078125,-5.1513671875
22.1083984375,-5.90966796875
21.5966796875,-5.4814453125
19.87890625,-3.97216796875
17.41796875,-1.703125
14.8515625,1.0029296875
12.8701171875,3.8408203125
12.044921875,6.4208984375
12.595703125,8.232421875
14.1767578125,8.77685546875
15.91015625,7.82861328125
16.7421875,5.72216796875
15.9814453125,3.4384765625
13.7294921875,2.2626953125
10.91015625,3.0625
8.84375,5.62744140625
8.52734375,8.62744140625
10.078125,10.3310546875
12.658203125,9.6279296875
14.9345703125,6.69921875
15.7919921875,2.9345703125
14.8740234375,0.1455078125
12.7177734375,-0.45361328125
10.4677734375,1.09521484375
9.345703125,3.58837890625
10.123046875,5.43505859375
12.8212890625,5.623046875
16.6953125,4.2646484375
20.5146484375,2.39892578125
23.0126953125,1.27197265625
23.3505859375,1.611328125
21.419921875,3.34619140625
17.900390625,5.78564453125
14.0537109375,7.951171875
11.306640625,8.89501953125
10.7060546875,7.9716796875
12.4326171875,5.056640625
15.658203125,0.66064453125
18.8974609375,-4.1201171875
20.759765625,-7.84375
20.6630859375,-9.212890625
19.080078125,-7.69580078125
17.1806640625,-3.92431640625
16.126953125,0.458984375
16.4384765625,3.544921875
17.7978515625,4.09716796875
19.3359375,2.150390625
20.216796875,-1.091796875
20.1025390625,-3.9560546875
19.236328125,-5.21142578125
18.17578125,-4.654296875
17.41015625,-3.078125
17.162109375,-1.67822265625
17.4189453125,-1.31494140625
18.087890625,-2.0712890625
19.0712890625,-3.3291015625
20.2294921875,-4.22021484375
21.31640625,-4.1416015625
21.994140625,-3.029296875
21.9580078125,-1.3115234375
21.08984375,0.40771484375
19.599609375,1.69677734375
18.0263671875,2.48046875
17.08203125,2.94873046875
17.31640625,3.302734375
18.83203125,3.580078125
21.158203125,3.67919921875
23.4453125,3.52294921875
24.826171875,3.197265625
24.7802734375,2.92236328125
23.3603515625,2.89697265625
21.1884765625,3.13037109375
19.1982421875,3.43017578125
18.21875,3.5859375
18.59375,3.6171875
20.060546875,3.84619140625
21.94140625,4.677734375
23.48828125,6.21630859375
24.1904296875,8.04345703125
23.9208984375,9.369140625
22.9423828125,9.46240234375
21.7607421875,8.05224609375
20.8671875,5.44873046875
20.4921875,2.3603515625
20.5185546875,-0.47265625
20.62890625,-2.599609375
20.599609375,-3.99658203125
20.4326171875,-4.966796875
20.197265625,-5.94287109375
19.6513671875,-7.40380859375
17.9814453125,-9.9140625
13.9248046875,-14.11962890625
6.3017578125,-20.60546875
-5.2939453125,-29.68798828125
-19.978515625,-41.279296875
-35.572265625,-54.87939453125
-49.19921875,-69.62841796875
-58.2705078125,-84.34521484375
-61.419921875,-97.625
-58.9833984375,-108.1015625
-52.810546875,-114.90869140625
-45.5439453125,-118.107421875
-39.6923828125,-118.73291015625
-36.7880859375,-118.326171875
-36.990234375,-118.140625
-39.25390625,-118.49072265625
-41.974609375,-118.65625
-43.7919921875,-117.4912109375
-44.1259765625,-114.42333984375
-43.236328125,-110.16259765625
-41.8671875,-106.5546875
-40.7685546875,-105.560546875
-40.3271484375,-107.9931640625
-40.431640625,-112.87841796875
-40.6298828125,-117.87841796875
-40.4599609375,-120.55712890625
-39.783203125,-119.720703125
-38.8701171875,-116.0517578125
-38.2197265625,-111.724609375
-38.1826171875,-109.21044921875
-38.69140625,-109.90087890625
-39.232421875,-113.3330078125
-39.130859375,-117.515625
-37.9716796875,-120.185546875
-35.94140625,-120.16748046875
-33.84765625,-117.970703125
-32.7880859375,-115.33837890625
-33.5947265625,-114.14599609375
-36.3818359375,-115.3671875
-40.443359375,-118.65625
-44.5244140625,-122.6640625
-47.3544921875,-125.876953125
-48.158203125,-127.47900390625
-46.96484375,-127.69873046875
-44.546875,-127.4306640625
-42.048828125,-127.43115234375
-40.490234375,-127.73046875
-40.35546875,-127.6708984375
-41.46875,-126.46826171875
-43.140625,-123.8701171875
-44.5146484375,-120.5009765625
-44.9580078125,-117.64990234375
-44.3603515625,-116.56640625
-43.173828125,-117.658203125
-42.154296875,-120.13037109375
-41.89453125,-122.3212890625
-42.44921875,-122.580078125
-43.322265625,-120.2275390625
-43.8232421875,-116.07177734375
-43.5146484375,-112.1279296875
-42.4404296875,-110.59423828125
-41.0302734375,-112.65576171875
-39.7958984375,-117.802734375
-39.033203125,-124.06201171875
-38.7451171875,-128.9736328125
-38.7587890625,-130.7734375
-38.9296875,-129.181640625
-39.2587890625,-125.44482421875
-39.859375,-121.666015625
-40.857421875,-119.80419921875
-42.2900390625,-120.82958984375
-44.0341796875,-124.36767578125
-45.7783203125,-128.919921875
-47.08984375,-132.5263671875
-47.5546875,-133.64208984375
-46.986328125,-131.88671875
-45.5634765625,-128.2978515625
-43.779296875,-124.86181640625
-42.2041015625,-123.4541015625
-41.177734375,-124.76611328125
-40.6591796875,-127.85595703125
-40.353515625,-130.65283203125
-40.04296875,-131.10986328125
-39.794921875,-128.36328125
-39.92578125,-123.30517578125
-40.7412109375,-118.26806640625
-42.2568359375,-115.92236328125
-44.0966796875,-117.91796875
-45.6123046875,-123.9677734375
-46.169921875,-131.8740234375
-45.494140625,-138.47900390625
-43.8388671875,-141.095703125
-41.89453125,-138.79345703125
-40.4775390625,-132.91943359375
-40.173828125,-126.55419921875
-41.119140625,-123.0693359375
-42.943359375,-124.50244140625
-44.9326171875,-130.57763671875
-46.2900390625,-138.84130859375
-46.4296875,-145.76416015625
-45.1806640625,-148.3330078125
-42.8623046875,-145.44140625
-40.158203125,-138.4951171875
-37.873046875,-130.83349609375
-36.63671875,-126.140625
-36.69140625,-126.60595703125
-37.8125,-131.80029296875
-39.4169921875,-138.85888671875
-40.83203125,-143.908203125
-41.6259765625,-144.068359375
-41.818359375,-139.01123046875
-41.853515625,-131.18701171875
-42.310546875,-124.49755859375
-43.5458984375,-122.17724609375
-45.4697265625,-125.08837890625
-47.5556640625,-131.38232421875
-49.1318359375,-137.61767578125
-49.7412109375,-140.671875
-49.3525390625,-139.4208984375
-48.2880859375,-135.28759765625
-46.94140625,-131.3310546875
-45.5517578125,-130.39697265625
-44.158203125,-133.44677734375
-42.76171875,-139.0419921875
-41.4794921875,-144.23046875
-40.5771484375,-146.22998046875
-40.3681640625,-143.94140625
-40.9912109375,-138.5234375
-42.3046875,-132.79736328125
-43.9052734375,-129.79150390625
-45.3046875,-131.16015625
-46.10546875,-136.30810546875
-46.1181640625,-142.70458984375
-45.4072265625,-147.16015625
-44.2548828125,-147.4228515625
-43.0576171875,-143.31591796875
-42.1611328125,-136.88720703125
-41.703125,-131.4150390625
-41.58203125,-129.6787109375
-41.5927734375,-132.42626953125
-41.6318359375,-137.912109375
-41.755859375,-142.80859375
-42.0712890625,-143.97802734375
-42.5546875,-140.14892578125
-43.00390625,-132.59228515625
-43.1298828125,-124.47216796875
-42.7841796875,-119.28515625
-42.109375,-119.18701171875
-41.5185546875,-124.00634765625
-41.4736328125,-131.3349609375
-42.1640625,-137.634765625
-43.3037109375,-139.88330078125
-44.2587890625,-137.0234375
-44.41796875,-130.494140625
-43.619140625,-123.50830078125
-42.283203125,-119.4033203125
-41.1279296875,-119.93896484375
-40.724609375,-124.45263671875
-41.1591796875,-130.310546875
-42.0205078125,-134.365234375
-42.7109375,-134.64990234375
-42.830078125,-131.40185546875
-42.416015625,-126.845703125
-41.884765625,-123.88037109375
-41.736328125,-124.45361328125
-42.212890625,-128.55126953125
-43.1591796875,-134.296875
-44.166015625,-138.97705078125
-44.8515625,-140.42919921875
-45.1171875,-138.12158203125
-45.17578125,-133.443359375
-45.3896484375,-129.01220703125
-45.99609375,-127.3056640625
-46.8955078125,-129.3486328125
-47.6611328125,-134.17041015625
-47.7666015625,-139.31640625
-46.9072265625,-142.087890625
-45.236328125,-140.93798828125
-43.3447265625,-136.32177734375
-41.998046875,-130.56982421875
-41.8037109375,-126.7265625
-42.9833984375,-126.93994140625
-45.3037109375,-131.25439453125
-48.13671875,-137.52392578125
-50.6572265625,-142.54443359375
-52.115234375,-143.8291015625
-52.1572265625,-141.02978515625
-51.0439453125,-136.158203125
-49.6015625,-132.4404296875
-48.8232421875,-132.4560546875
-49.3203125,-136.68212890625
-50.912109375,-143.29736328125
-52.671875,-149.3115234375
-53.4111328125,-152.2900390625
-52.3349609375,-151.59326171875
-49.4951171875,-148.4912109375
-45.818359375,-145.23681640625
-42.685546875,-143.7314453125
-41.3193359375,-144.5458984375
-42.267578125,-146.74267578125
-45.1640625,-148.5166015625
-48.7578125,-148.1552734375
-51.205078125,-144.7109375
-50.58984375,-138.05224609375
-45.54296875,-128.474609375
-35.7666015625,-116.2646484375
-22.259765625,-101.52099609375
-7.154296875,-84.24609375
6.86328125,-64.49853515625
17.4609375,-42.48681640625
23.5,-18.59765625
25.419921875,6.4853515625
24.935546875,31.55908203125
24.181640625,54.7685546875
24.765625,73.8115234375
27.203125,86.599609375
30.96875,92.130859375
35.013671875,91.07470703125
38.3486328125,85.6396484375
40.3994140625,78.64453125
41.0625,72.27880859375
40.552734375,67.31201171875
39.2080078125,63.21875
37.388671875,59.00634765625
35.453125,54.103515625
33.7841796875,48.72412109375
32.7314453125,43.607421875
32.48828125,39.435546875
32.98046875,36.392578125
33.908203125,34.166015625
34.8828125,32.28759765625
35.5869140625,30.50146484375
35.8232421875,28.83837890625
35.494140625,27.39306640625
34.5791015625,26.0341796875
33.138671875,24.3525390625
31.3671875,21.9580078125
29.62890625,18.87841796875
28.462890625,15.7158203125
28.408203125,13.3662109375
29.708984375,12.50830078125
32.080078125,13.2158203125
34.7744140625,14.9326171875
37.0078125,16.77392578125
38.4521484375,17.92138671875
39.4228515625,17.92236328125
40.6279296875,16.83447265625
42.625,15.2080078125
45.4169921875,13.88232421875
48.3916015625,13.57421875
50.6533203125,14.49267578125
51.52734375,16.20849609375
50.9375,17.87890625
49.47265625,18.68310546875
48.0986328125,18.2607421875
47.67578125,16.95263671875
48.53515625,15.701171875
50.3447265625,15.61669921875
52.3203125,17.4296875
53.6767578125,21.09765625
54.046875,25.73583984375
53.68359375,29.92333984375
53.318359375,32.29296875
53.7724609375,32.162109375
55.4697265625,29.86181640625
58.1572265625,26.6005859375
61.0029296875,23.9072265625
63.04296875,22.96923828125
63.7021484375,24.13330078125
63.12890625,26.7724609375
62.12109375,29.54736328125
61.6982421875,30.9658203125
62.5419921875,30.046875
64.603515625,26.8037109375
67.123046875,22.3056640625
69.0380859375,18.26611328125
69.5244140625,16.30810546875
68.37109375,17.2470703125
66.0322265625,20.7177734375
63.404296875,25.30908203125
61.4599609375,29.169921875
60.9169921875,30.83154296875
62.0166015625,29.84375
64.400390625,26.95556640625
67.1875,23.75
69.28125,21.91552734375
69.8759765625,22.4541015625
68.89453125,25.20068359375
67.05859375,28.861328125
65.4716796875,31.60009765625
64.94921875,31.94677734375
65.423828125,29.58349609375
65.9091796875,25.5478515625
65.0869140625,21.662109375
62.1953125,19.529296875
57.6484375,19.70166015625
52.9345703125,21.46826171875
49.8701171875,23.294921875
49.6201171875,23.662109375
52.115234375,21.8779296875
56.15625,18.46484375
60.080078125,14.91943359375
62.6103515625,12.94580078125
63.3759765625,13.56884765625
62.9150390625,16.6494140625
62.1923828125,21.068359375
62.0244140625,25.38525390625
62.69921875,28.5087890625
63.9755859375,29.9990234375
65.3154296875,29.98876953125
66.189453125,28.94287109375
66.3154296875,27.4609375
65.73046875,26.14013671875
64.7255859375,25.44140625
63.7333984375,25.5478515625
63.171875,26.3515625
63.298828125,27.59716796875
64.0693359375,29.0537109375
65.0615234375,30.55078125
65.5849609375,31.880859375
64.958984375,32.72998046875
62.8505859375,32.78125
59.529296875,31.97021484375
55.8662109375,30.70947265625
53.04296875,29.87060546875
52.0458984375,30.40771484375
53.18359375,32.7724609375
55.904296875,36.49462890625
59.03125,40.28515625
61.3291015625,42.67529296875
62.0703125,42.80908203125
61.3212890625,40.90380859375
59.7900390625,38.10107421875
58.3876953125,35.83642578125
57.7158203125,35.15234375
57.791015625,36.32470703125
58.1318359375,38.8818359375
58.154296875,41.85888671875
57.6103515625,44.15234375
56.7802734375,44.9033203125
56.3125,43.84716796875
56.861328125,41.4794921875
58.734375,38.90771484375
61.7197265625,37.38720703125
65.138671875,37.736328125
68.1318359375,39.9287109375
70.0302734375,43.0693359375
70.599609375,45.80126953125
70.037109375,46.96142578125
68.7880859375,46.1953125
67.275390625,44.13818359375
65.7392578125,42.009765625
64.2392578125,40.875
62.8154296875,41.09326171875
61.6669921875,42.2978515625
61.134765625,43.80419921875
61.4814453125,45.044921875
62.65625,45.7822265625
64.2490234375,46.0380859375
65.6962890625,45.94091796875
66.5595703125,45.59912109375
66.669921875,45.0869140625
66.05078125,44.52685546875
64.7451171875,44.2060546875
62.7333984375,44.5830078125
60.037109375,46.08837890625
56.921875,48.7802734375
53.9970703125,52.115234375
52.0869140625,55.04248046875
51.8427734375,56.43701171875
53.29296875,55.6142578125
55.67578125,52.6884765625
57.7744140625,48.65478515625
58.5634765625,45.15966796875
57.787109375,43.935546875
56.0322265625,46.01953125
54.3232421875,51.1083984375
53.5185546875,57.49267578125
53.896484375,62.70654296875
55.14453125,64.65966796875
56.638671875,62.66796875
57.8134765625,57.826171875
58.3642578125,52.474609375
58.2822265625,48.98828125
57.7578125,48.57275390625
57.080078125,50.73779296875
56.5458984375,53.73876953125
56.345703125,55.61572265625
56.4697265625,55.17431640625
56.697265625,52.41748046875
56.7412109375,48.3359375
56.4560546875,44.318359375
55.9638671875,41.5498046875
55.66015625,40.65673828125
56.0302734375,41.6025390625
57.36328125,43.794921875
59.5,46.3310546875
61.7802734375,48.310546875
63.28125,49.13916015625
63.25,48.6796875
61.4794921875,47.236328125
58.455078125,45.34619140625
55.1845703125,43.51904296875
52.787109375,42.1005859375
52.0078125,41.27392578125
52.912109375,41.0517578125
54.9384765625,41.13720703125
57.2626953125,40.8603515625
59.2060546875,39.42333984375
60.44140625,36.45166015625
60.9248046875,32.45263671875
60.7021484375,28.80712890625
59.7939453125,27.21533203125
58.236328125,28.84375
56.1689453125,33.6357421875
53.9150390625,40.1455078125
51.978515625,46.005859375
50.9482421875,48.87548828125
51.287109375,47.4951171875
53.04296875,42.33642578125
55.677734375,35.45361328125
58.1806640625,29.55224609375
59.498046875,26.77587890625
59.021484375,27.84228515625
56.896484375,31.90869140625
53.9970703125,37.1474609375
51.5712890625,41.6826171875
50.728515625,44.38330078125
51.9599609375,45.11767578125
54.8916015625,44.4482421875
58.4072265625,43.09814453125
61.15625,41.59375
62.1611328125,40.23583984375
61.2138671875,39.23876953125
58.8466796875,38.8017578125
55.9345703125,39.015625
53.1865234375,39.7958984375
50.8642578125,40.93603515625
48.837890625,42.1943359375
46.8994140625,43.25732421875
45.0693359375,43.6826171875
43.6396484375,43.01611328125
42.970703125,41.05322265625
43.203125,38.0087890625
44.1015625,34.41015625
45.1279296875,30.84912109375
45.7119140625,27.78955078125
45.552734375,25.5263671875
44.7744140625,24.17138671875
43.8388671875,23.58935546875
43.2841796875,23.32958984375
43.4375,22.69873046875
44.2705078125,21.04443359375
45.4677734375,18.11279296875
46.6337890625,14.31689453125
47.4970703125,10.73486328125
47.9716796875,8.73583984375
48.0673828125,9.3447265625
47.78515625,12.6533203125
47.0947265625,17.67333984375
46.052734375,22.73486328125
44.8916015625,26.20166015625
43.9765625,27.119140625
43.6259765625,25.5693359375
43.900390625,22.65966796875
44.537109375,20.11328125
45.0888671875,19.5234375
45.1904296875,21.537109375
44.7353515625,25.3974609375
43.8310546875,29.2294921875
42.666015625,30.97119140625
41.400390625,29.44921875
40.18359375,24.96923828125
39.2080078125,19.15234375
38.7470703125,14.13232421875
39.0732421875,11.53076171875
40.3134765625,11.68017578125
42.2939453125,13.50390625
44.54296875,15.12255859375
46.46875,14.84423828125
47.6650390625,12.01708984375
48.1025390625,7.3046875
48.072265625,2.30810546875
47.94140625,-1.2548828125
47.896484375,-2.38916015625
47.857421875,-1.22705078125
47.6220703125,1.14697265625
47.119140625,3.3037109375
46.56640625,4.1728515625
46.41015625,3.50439453125
47.0859375,1.8681640625
48.712890625,0.1962890625
50.9423828125,-0.79638671875
53.052734375,-0.9306640625
54.279296875,-0.474609375
54.21484375,0.16845703125
52.998046875,0.7021484375
51.1982421875,0.9765625
49.4892578125,0.896484375
48.3388671875,0.384765625
47.8427734375,-0.58642578125
47.767578125,-1.93603515625
47.73046875,-3.44970703125
47.404296875,-4.814453125
46.646484375,-5.689453125
45.509765625,-5.8193359375
44.1884765625,-5.1650390625
42.974609375,-4.017578125
42.20703125,-3.00634765625
42.150390625,-2.93359375
42.8486328125,-4.40869140625
44.0478515625,-7.4189453125
45.314453125,-11.1025390625
46.2802734375,-13.95751953125
46.841796875,-14.509765625
47.1826171875,-12.0751953125
47.6279296875,-7.1943359375
48.3857421875,-1.4306640625
49.3642578125,3.26806640625
50.1455078125,5.3017578125
50.197265625,3.94970703125
49.21875,-0.40185546875
47.41015625,-6.3662109375
45.4384765625,-12.00439453125
44.08203125,-15.4990234375
43.751953125,-15.82763671875
44.25390625,-13.15576171875
44.9345703125,-8.7490234375
45.134765625,-4.4228515625
44.5908203125,-1.77197265625
43.5546875,-1.55126953125
42.5966796875,-3.48583984375
42.2978515625,-6.56591796875
42.9580078125,-9.599609375
44.4658203125,-11.6962890625
46.2998046875,-12.509765625
47.7275390625,-12.25439453125
48.087890625,-11.56005859375
47.046875,-11.2158203125
44.724609375,-11.8251953125
41.6826171875,-13.50341796875
38.7197265625,-15.771484375
36.580078125,-17.71240234375
35.63671875,-18.35791015625
35.7685546875,-17.08642578125
36.5537109375,-13.888671875
37.58203125,-9.3935546875
38.650390625,-4.677734375
39.7275390625,-0.93359375
40.80078125,0.89599609375
41.765625,0.408203125
42.421875,-2.13720703125
42.5654296875,-5.84765625
42.15625,-9.31005859375
41.4580078125,-10.8212890625
40.9921875,-8.8212890625
41.296875,-2.51904296875
42.5927734375,7.63818359375
44.5703125,20.0546875
46.4541015625,32.77294921875
47.3583984375,44.53662109375
46.798828125,55.49267578125
45.0546875,67.21875
43.1259765625,82.21826171875
42.232421875,103.19384765625
43.119140625,132.28369140625
45.5986328125,170.39599609375
48.5849609375,216.90625
50.68359375,269.91796875
50.96484375,327.08447265625
49.4228515625,386.5712890625
46.900390625,447.59033203125
44.5576171875,510.16845703125
43.2724609375,574.25927734375
43.24609375,638.7470703125
43.9560546875,701.0087890625
44.4501953125,757.4599609375
43.849609375,804.92041015625
41.7939453125,842.03125
38.6123046875,869.8466796875
35.1640625,891.2265625
32.4619140625,909.45263671875
31.197265625,926.88525390625
31.375,944.25244140625
32.2392578125,960.71484375
32.6435546875,974.50048828125
31.63671875,983.74951171875
28.9609375,987.232421875
25.1201171875,984.65966796875
21.115234375,976.529296875
18.05078125,963.63720703125
16.75,946.591796875
17.462890625,925.61474609375
19.734375,900.7138671875
22.556640625,872
24.8232421875,839.8828125
25.8955078125,805.07080078125
25.9306640625,768.46142578125
25.734375,731.0029296875
26.2373046875,693.5244140625
27.9248046875,656.55078125
30.63671875,620.25341796875
33.796875,584.59375
36.861328125,549.56591796875
39.6376953125,515.35498046875
42.2822265625,482.36767578125
45.029296875,451.18701171875
47.8857421875,422.474609375
50.4814453125,396.72900390625
52.1787109375,373.9736328125
52.44140625,353.53369140625
51.1484375,334.1435546875
48.7529296875,314.33251953125
46.0927734375,292.91552734375
44.033203125,269.3994140625
43.1318359375,244.15087890625
43.4306640625,218.28369140625
44.5419921875,193.26513671875
45.9091796875,170.44287109375
47.140625,150.69140625
48.1611328125,134.29931640625
49.13671875,121.0283203125
50.23046875,110.2587890625
51.37890625,101.162109375
52.2138671875,92.89892578125
52.234375,84.7607421875
51.12109375,76.23291015625
49.06640625,67.048828125
46.833984375,57.29345703125
45.4716796875,47.47509765625
45.7744140625,38.3984375
47.787109375,30.83935546875
50.6884765625,25.19384765625
53.166015625,21.26904296875
54.1025390625,18.30029296875
53.1611328125,15.20361328125
50.875,11.0361328125
48.234375,5.5
46.076171875,-0.791015625
44.7431640625,-6.51416015625
44.1328125,-10.24560546875
43.9755859375,-11.1728515625
44.0576171875,-9.5302734375
44.2314453125,-6.53515625
44.3330078125,-3.826171875
44.140625,-2.72705078125
43.4501953125,-3.67919921875
42.234375,-6.13232421875
40.7587890625,-8.93896484375
39.5322265625,-11.0341796875
39.08984375,-12.001953125
39.7216796875,-12.193359375
41.3037109375,-12.35498046875
43.341796875,-13.02587890625
45.189453125,-14.1240234375
46.3076171875,-15.0146484375
46.4228515625,-15.05126953125
45.5341796875,-14.19140625
43.845703125,-13.224609375
41.7158203125,-13.36376953125
39.6328125,-15.40380859375
38.13671875,-19.005859375
37.6474609375,-22.671875
38.28515625,-24.53369140625
39.79296875,-23.4775390625
41.6396484375,-19.8818359375
43.2802734375,-15.5146484375
44.4140625,-12.6640625
45.08203125,-12.9794921875
45.494140625,-16.67529296875
45.7900390625,-22.44873046875
45.9150390625,-28.1103515625
45.7509765625,-31.591796875
45.341796875,-31.8583984375
45,-29.30322265625
45.166015625,-25.4892578125
46.1357421875,-22.39892578125
47.8544921875,-21.5009765625
49.884765625,-23.064453125
51.5986328125,-26.06005859375
52.48046875,-28.76953125
52.3837890625,-29.75390625
51.6103515625,-28.6328125
50.755859375,-26.2412109375
50.4326171875,-24.13037109375
50.9931640625,-23.6875
52.3916015625,-25.37158203125
54.2216796875,-28.4638671875
55.88671875,-31.46875
56.845703125,-32.89453125
56.83203125,-31.9697265625
55.96875,-28.9755859375
54.6953125,-25.09130859375
53.5751953125,-21.88818359375
53.005859375,-20.6923828125
53.068359375,-22.08056640625
53.55078125,-25.64794921875
54.1298828125,-30.1005859375
54.546875,-33.701171875
54.6982421875,-35.005859375
54.6123046875,-33.6025390625
54.3857421875,-30.40576171875
54.1279296875,-27.2255859375
53.98046875,-25.82666015625
54.1640625,-27.0361328125
54.9296875,-30.41650390625
56.37890625,-34.611328125
58.2529296875,-38.07177734375
59.880859375,-39.74169921875
60.4296875,-39.455078125
59.3447265625,-37.9677734375
56.6865234375,-36.6162109375
53.166015625,-36.7021484375
49.8125,-38.85302734375
47.5224609375,-42.693359375
46.7158203125,-46.978515625
47.234375,-50.1025390625
48.498046875,-50.81494140625
49.8154296875,-48.8974609375
50.6787109375,-45.43896484375
50.923828125,-42.37890625
50.6787109375,-41.47900390625
50.2275390625,-43.33740234375
49.841796875,-47.09912109375
49.7119140625,-50.9765625
49.9423828125,-53.17578125
50.5751953125,-52.73876953125
51.6005859375,-49.94287109375
52.87109375,-46.1376953125
54.0244140625,-43.10107421875
54.5048828125,-42.22314453125
53.7666015625,-43.966796875
51.61328125,-47.81640625
48.4404296875,-52.62548828125
45.1923828125,-57.08203125
43.009765625,-60.08251953125
42.7216796875,-61.01318359375
44.47265625,-59.92919921875
47.6611328125,-57.54541015625
51.1845703125,-54.92138671875
53.904296875,-52.96875
55.0595703125,-52.08056640625
54.53125,-52.12158203125
52.84375,-52.734375
50.9365234375,-53.65625
49.7822265625,-54.796875
49.9833984375,-56.103515625
51.53125,-57.4052734375
53.8251953125,-58.39990234375
55.9501953125,-58.76953125
57.056640625,-58.34619140625
56.681640625,-57.23046875
54.8720703125,-55.76171875
52.09765625,-54.34765625
49.0263671875,-53.3017578125
46.31640625,-52.828125
44.4609375,-53.1201171875
43.716796875,-54.37158203125
44.0712890625,-56.57275390625
45.2529296875,-59.25830078125
46.7978515625,-61.50830078125
48.2158203125,-62.30712890625
49.17578125,-61.087890625
49.638671875,-58.11181640625
49.826171875,-54.4658203125
50.025390625,-51.67919921875
50.3828125,-51.0771484375
50.8271484375,-53.14501953125
51.173828125,-57.189453125
51.3095703125,-61.5048828125
51.2900390625,-64.04541015625
51.322265625,-63.294921875
51.6162109375,-59.00146484375
52.2333984375,-52.40185546875
53.0126953125,-45.83349609375
53.6064453125,-41.806640625
53.66015625,-41.91845703125
53.0361328125,-46.09619140625
51.966796875,-52.59130859375
51.0078125,-58.744140625
50.80078125,-62.189453125
51.7197265625,-61.87890625
53.623046875,-58.42333984375
55.818359375,-53.66259765625
57.3544921875,-49.76123046875
57.4853515625,-48.306640625
56.0576171875,-49.77294921875
53.583984375,-53.46728515625
50.9228515625,-57.8984375
48.8232421875,-61.361328125
47.55859375,-62.53955078125
46.8544921875,-60.93359375
46.1142578125,-57.0380859375
44.8056640625,-52.17822265625
42.8427734375,-48.046875
40.7373046875,-46.0849609375
39.3857421875,-46.95556640625
39.5908203125,-50.3232421875
41.57421875,-54.99560546875
44.7763671875,-59.40869140625
48.1015625,-62.259765625
50.41796875,-63.05029296875
51.04296875,-62.24951171875
49.9140625,-60.9755859375
47.4658203125,-60.33056640625
44.35546875,-60.78271484375
41.25,-61.95263671875
38.7490234375,-62.92529296875
37.33984375,-62.89990234375
37.251953125,-61.7646484375
38.29296875,-60.251953125
39.8505859375,-59.58154296875
41.185546875,-60.7548828125
41.8310546875,-63.87109375
41.8212890625,-67.869140625
41.55859375,-70.953125
41.41796875,-71.525390625
41.4130859375,-69.1337890625
41.1669921875,-64.80322265625
40.25,-60.5546875
38.5712890625,-58.37255859375
36.5576171875,-59.2177734375
34.9873046875,-62.61083984375
34.634765625,-66.998046875
35.8955078125,-70.62890625
38.6298828125,-72.40478515625
42.205078125,-72.228515625
45.7314453125,-70.76513671875
48.36328125,-68.9111328125
49.5751953125,-67.37841796875
49.31640625,-66.5419921875
47.9794921875,-66.4697265625
46.251953125,-66.99169921875
44.8623046875,-67.79736328125
44.318359375,-68.5634765625
44.767578125,-69.05810546875
46.0234375,-69.17333984375
47.7060546875,-68.86376953125
49.3896484375,-68.076171875
50.7255859375,-66.7421875
51.5234375,-64.8349609375
51.76953125,-62.4521484375
51.619140625,-59.8681640625
51.3125,-57.49755859375
51.080078125,-55.75830078125
51.04296875,-54.8720703125
51.205078125,-54.72216796875
51.484375,-54.91943359375
51.7958984375,-55.07763671875
52.076171875,-55.0732421875
52.326171875,-55.09765625
52.6455078125,-55.44189453125
53.2294921875,-56.19775390625
54.2548828125,-57.08984375
55.6484375,-57.59912109375
56.974609375,-57.33642578125
57.5546875,-56.41845703125
56.798828125,-55.51904296875
54.5625,-55.50048828125
51.2802734375,-56.8232421875
47.826171875,-59.1376953125
45.15625,-61.36474609375
43.939453125,-62.20458984375
44.3359375,-60.798828125
45.978515625,-57.20751953125
48.1376953125,-52.51806640625
49.9296875,-48.53515625
50.59765625,-47.10791015625
49.791015625,-49.3330078125
47.794921875,-54.9501953125
45.5400390625,-62.27294921875
44.2216796875,-68.77001953125
44.669921875,-72.05859375
46.8359375,-70.88232421875
49.798828125,-65.6904296875
52.3056640625,-58.626953125
53.4384765625,-52.81884765625
53.0419921875,-51.09716796875
51.693359375,-54.65234375
50.3525390625,-62.33544921875
49.8916015625,-71.0380859375
50.7041015625,-77.0478515625
52.5244140625,-77.7216796875
54.5703125,-72.68212890625
55.93359375,-63.88525390625
56.0400390625,-54.53857421875
54.912109375,-47.5234375
53.123046875,-44.228515625
51.50390625,-44.37353515625
50.76953125,-46.67529296875
51.2236328125,-49.7333984375
52.6474609375,-52.55419921875
54.3984375,-54.5771484375
55.701171875,-55.4658203125
55.9775390625,-55.02392578125
55.09765625,-53.32470703125
53.455078125,-50.8955078125
51.8662109375,-48.6845703125
51.287109375,-47.72900390625
52.4052734375,-48.68212890625
55.2177734375,-51.4375
58.9228515625,-55.05517578125
62.1845703125,-58.08056640625
63.7353515625,-59.181640625
62.97265625,-57.8193359375
60.2431640625,-54.576171875
56.701171875,-50.90478515625
53.8125,-48.40771484375
52.744140625,-48.1171875
53.8828125,-50.162109375
56.6552734375,-53.9052734375
59.7568359375,-58.302734375
61.712890625,-62.25
61.546875,-64.85546875
59.2529296875,-65.64599609375
55.814453125,-64.69384765625
52.7822265625,-62.54833984375
51.5859375,-59.96826171875
52.8818359375,-57.59912109375
56.236328125,-55.7978515625
60.32421875,-54.67529296875
63.55859375,-54.2529296875
64.8076171875,-54.5693359375
63.84375,-55.662109375
61.310546875,-57.42041015625
58.2783203125,-59.43408203125
55.7197265625,-61.00244140625
54.1669921875,-61.39404296875
53.6875,-60.24072265625
54.029296875,-57.81298828125
54.759765625,-54.98486328125
55.3671875,-52.9130859375
55.384765625,-52.60986328125
54.5654296875,-54.52685546875
53.0361328125,-58.27294921875
51.2783203125,-62.59716796875
49.9208984375,-65.79541015625
49.4814453125,-66.44677734375
50.1875,-64.12255859375
51.9072265625,-59.64013671875
54.20703125,-54.64013671875
56.458984375,-50.75634765625
58.01953125,-48.91015625
58.4560546875,-49.11279296875
57.787109375,-50.7607421875
56.53515625,-53.04736328125
55.52734375,-55.232421875
55.4453125,-56.7578125
56.3759765625,-57.3037109375
57.693359375,-56.8232421875
58.3701171875,-55.55712890625
57.6171875,-53.97412109375
55.392578125,-52.6259765625
52.484375,-51.92626953125
50.0615234375,-51.93359375
49.046875,-52.28515625
49.70703125,-52.40771484375
51.66015625,-51.9326171875
54.1630859375,-51.02880859375
56.4697265625,-50.36181640625
58.080078125,-50.64892578125
58.8408203125,-52.10791015625
58.9091796875,-54.16064453125
58.5908203125,-55.6669921875
58.1123046875,-55.5341796875
57.501953125,-53.3720703125
56.6474609375,-49.77685546875
55.486328125,-46.11376953125
54.1708984375,-43.88671875
53.04296875,-44.033203125
52.4501953125,-46.4951171875
52.5439453125,-50.2744140625
53.1923828125,-53.9072265625
54.05859375,-56.115234375
54.771484375,-56.34326171875
55.0986328125,-54.94970703125
55.01171875,-52.97216796875
54.6318359375,-51.5732421875
54.1142578125,-51.46630859375
53.552734375,-52.64599609375
52.9248046875,-54.55712890625
52.0771484375,-56.51513671875
50.79296875,-58.04931640625
48.9521484375,-59.01220703125
46.7138671875,-59.4501953125
44.533203125,-59.43017578125
42.9794921875,-58.9775390625
42.4462890625,-58.15869140625
42.955078125,-57.20849609375
44.201171875,-56.50537109375
45.75,-56.35791015625
47.228515625,-56.7666015625
48.3681640625,-57.3994140625
48.93359375,-57.80126953125
48.740234375,-57.66455078125
47.7958984375,-56.99267578125
46.4912109375,-56.099609375
45.5654296875,-55.4873046875
45.7529296875,-55.66162109375
47.3134765625,-56.91064453125
49.802734375,-59.12158203125
52.271484375,-61.73095703125
53.79296875,-63.90673828125
53.9501953125,-64.93505859375
52.9931640625,-64.5986328125
51.5888671875,-63.30908203125
50.4013671875,-61.89892578125
49.7802734375,-61.15625
49.724609375,-61.3642578125
50.0263671875,-62.11962890625
50.46484375,-62.59814453125
50.8935546875,-62.1357421875
51.234375,-60.71630859375
51.3828125,-58.98095703125
51.15625,-57.76318359375
50.3330078125,-57.49365234375
48.8369140625,-57.8974609375
46.8857421875,-58.1435546875
44.978515625,-57.34765625
43.6806640625,-55.109375
43.3330078125,-51.77783203125
43.8984375,-48.287109375
45.00390625,-45.68701171875
46.171875,-44.607421875
47.0322265625,-44.9609375
47.416015625,-46.02978515625
47.3037109375,-46.89697265625
46.724609375,-46.9736328125
45.6962890625,-46.25927734375
44.2431640625,-45.24365234375
42.482421875,-44.5751953125
40.6826171875,-44.74462890625
39.2314453125,-45.90869140625
38.556640625,-47.87744140625
38.955078125,-50.20166015625
40.296875,-52.29345703125
41.619140625,-53.54345703125
40.953125,-53.45166015625
35.6953125,-51.767578125
23.548828125,-48.57666015625
3.630859375,-44.306640625
-22.935546875,-39.65869140625
-53.4130859375,-35.501953125
-84.6298828125,-32.6640625
-114.314453125,-31.62841796875
-141.736328125,-32.27734375
-167.4287109375,-33.8623046875
-192.2548828125,-35.2890625
-216.49609375,-35.54931640625
-239.4580078125,-34.09033203125
-259.6953125,-30.96240234375
-275.677734375,-26.70166015625
-286.5009765625,-22.0771484375
-292.283203125,-17.8701171875
-294.1103515625,-14.7880859375
-293.599609375,-13.3916015625
-292.3232421875,-13.92626953125
-291.361328125,-16.1123046875
-291.080078125,-19.12548828125
-291.2509765625,-21.8857421875
-291.353515625,-23.5322265625
-290.9609375,-23.767578125
-290.0107421875,-22.908203125
-288.865234375,-21.6435546875
-288.12890625,-20.72314453125
-288.298828125,-20.69482421875
-289.46484375,-21.73291015625
-291.2490234375,-23.55810546875
-293,-25.52392578125
-294.0869140625,-26.91845703125
-294.134765625,-27.36181640625
-293.158203125,-27.06201171875
-291.5244140625,-26.7197265625
-289.796875,-27.10888671875
-288.5439453125,-28.59814453125
-288.1572265625,-30.9306640625
-288.7041015625,-33.4130859375
-289.861328125,-35.37158203125
-291.0244140625,-36.564453125
-291.703125,-37.28515625
-292.0888671875,-38.119140625
-293.3681640625,-39.53515625
-297.3798828125,-41.54052734375
-305.6005859375,-43.607421875
-318.0009765625,-44.85546875
-332.5693359375,-44.47412109375
-345.900390625,-42.234375
-354.630859375,-38.8515625
-356.9384765625,-35.8662109375
-353.3173828125,-34.9375
-346.2490234375,-36.89404296875
-339.0009765625,-41.1416015625
-334.1962890625,-45.869140625
-332.888671875,-48.970703125
-334.50390625,-49.138671875
-337.556640625,-46.48583984375
-340.5615234375,-42.3994140625
-342.6240234375,-38.7724609375
-343.51171875,-37.1025390625
-343.357421875,-37.91259765625
-342.3369140625,-40.697265625
-340.55859375,-44.29638671875
-338.171875,-47.416015625
-335.513671875,-49.0908203125
-333.126953125,-48.96630859375
-331.6171875,-47.39892578125
-331.3681640625,-45.3251953125
-332.3427734375,-43.853515625
-334.0791015625,-43.73486328125
-335.8984375,-44.98046875
-337.1337890625,-46.88427734375
-337.30078125,-48.44140625
-336.20703125,-48.89111328125
-333.9990234375,-48.05615234375
-331.1376953125,-46.3388671875
-328.2373046875,-44.45849609375
-325.8427734375,-43.109375
-324.28515625,-42.71875
-323.64453125,-43.353515625
-323.8017578125,-44.77783203125
-324.533203125,-46.5947265625
-325.625,-48.421875
-326.96875,-50.0390625
-328.58203125,-51.46826171875
-330.4970703125,-52.88134765625
-332.595703125,-54.3720703125
-334.525390625,-55.7431640625
-335.7470703125,-56.5205078125
-335.7900390625,-56.24853515625
-334.5712890625,-54.89111328125
-332.541015625,-52.9833984375
-330.498046875,-51.37060546875
-329.166015625,-50.70068359375
-328.8505859375,-51.03955078125
-329.345703125,-51.87939453125
-330.14453125,-52.47998046875
-330.7841796875,-52.30810546875
-331.1416015625,-51.28369140625
