Horizontal,Vertical
0,0
1.02877807617188,-3.2919921875
3.54254150390625,-3.873779296875
6.659423828125,-1.887939453125
9.06491088867188,1.2071533203125
9.72344970703125,3.5556640625
8.51321411132812,3.9957275390625
6.42889404296875,2.67138671875
5.18548583984375,0.795166015625
6.40225219726562,-0.2401123046875
10.7925720214844,0.2357177734375
17.8001708984375,1.8521728515625
25.8402099609375,3.5894775390625
32.9847412109375,4.5352783203125
37.73046875,4.4884033203125
39.4988708496094,4.03564453125
38.6945495605469,4.121337890625
36.3796997070312,5.43310546875
33.7879638671875,8.00390625
31.9170227050781,11.2152099609375
31.3196411132812,14.160888671875
32.0827331542969,16.124755859375
33.9350891113281,16.8896484375
36.4471130371094,16.712158203125
39.2364501953125,16.0418701171875
42.0833740234375,15.2490234375
44.8763427734375,14.5313720703125
47.45751953125,14.004150390625
49.5243835449219,13.81884765625
50.7060546875,14.16015625
50.7929077148438,15.0936279296875
49.959228515625,16.383056640625
48.8027954101562,17.4603271484375
48.1374206542969,17.6632080078125
48.6221008300781,16.644775390625
50.4289855957031,14.63720703125
53.1402587890625,12.2855224609375
55.9468994140625,10.1407470703125
58.0661010742188,8.28466796875
59.1672668457031,6.4600830078125
59.5618591308594,4.611083984375
60.0384826660156,3.2935791015625
61.4086303710938,3.49462890625
64.001953125,5.9007568359375
67.4129333496094,10.1693115234375
70.6591796875,14.84619140625
72.6660766601562,18.1077880859375
72.803466796875,18.84619140625
71.1817016601562,17.3438720703125
68.5702209472656,15.0650634765625
66.0044250488281,13.705322265625
64.29638671875,14.177734375
63.7070007324219,16.1947021484375
63.9291687011719,18.62158203125
64.3529052734375,20.2474365234375
64.4336242675781,20.455322265625
63.9743347167969,19.4564208984375
63.1907043457031,18.0457763671875
62.5537719726562,17.078125
62.5020446777344,16.9561767578125
63.1885681152344,17.4044189453125
64.3992614746094,17.6640625
65.6897888183594,17.0089111328125
66.6341552734375,15.2867431640625
67.0070190429688,13.08935546875
66.7852783203125,11.4144287109375
65.9951782226562,11.05224609375
64.5447387695312,12.1148681640625
62.1912536621094,14.005615234375
58.6881103515625,15.8017578125
54.0107421875,16.7939453125
48.5123291015625,16.849609375
42.9494934082031,16.400146484375
38.4417724609375,16.118408203125
36.4043884277344,16.5335693359375
38.3697204589844,17.8358154296875
45.5976867675781,19.91552734375
58.572265625,22.5179443359375
76.6626892089844,25.407470703125
98.228515625,28.5079345703125
121.208480834961,31.97216796875
143.919372558594,36.0745849609375
165.599594116211,40.90869140625
186.382339477539,46.0863037109375
206.748275756836,50.7100830078125
226.861602783203,53.68212890625
246.233352661133,54.1915283203125
263.8544921875,52.1343994140625
278.606475830078,48.264892578125
289.660827636719,43.9703369140625
296.704483032227,40.695068359375
300.005599975586,39.2740478515625
300.371490478516,39.544921875
299.001586914062,40.5089111328125
297.189605712891,40.9017333984375
295.918975830078,39.8460693359375
295.535522460938,37.2548828125
295.719848632812,33.815185546875
295.823486328125,30.5726318359375
295.368041992188,28.281982421875
294.399993896484,26.9085693359375
293.514022827148,25.6168212890625
293.587158203125,23.2926025390625
295.387939453125,19.3038330078125
299.238586425781,14.0267333984375
304.830917358398,8.818359375
311.251876831055,5.4149169921875
317.235702514648,5.050537109375
321.579971313477,7.7513427734375
323.590797424316,12.213623046875
323.367538452148,16.36279296875
321.757446289062,18.3245849609375
319.966644287109,17.2901611328125
318.995018005371,13.794921875
319.189094543457,9.288330078125
320.147148132324,5.336669921875
321.023750305176,2.9539794921875
321.046333312988,2.3895263671875
319.932235717773,3.3203125
317.982055664062,5.1800537109375
315.858383178711,7.394775390625
314.239669799805,9.4730224609375
313.540786743164,11.0423583984375
313.807975769043,11.884765625
314.755683898926,11.9832763671875
315.881202697754,11.5615234375
316.591827392578,11.1048583984375
316.346534729004,11.2813720703125
314.830780029297,12.690673828125
312.118911743164,15.480712890625
308.74430847168,19.0748291015625
305.57258605957,22.279541015625
303.493141174316,23.7940673828125
303.081489562988,22.902587890625
304.414001464844,19.9354248046875
307.12239074707,16.211669921875
310.583847045898,13.437255859375
314.11678314209,12.84326171875
317.119293212891,14.539794921875
319.18196105957,17.480224609375
320.191184997559,20.04345703125
320.370910644531,20.8470458984375
320.185897827148,19.323486328125
320.119728088379,15.8759765625
320.413368225098,11.67724609375
320.902336120605,8.21044921875
321.063293457031,6.672607421875
320.269790649414,7.418212890625
318.133369445801,9.7659912109375
314.744499206543,12.3377685546875
310.675216674805,13.773193359375
306.74925994873,13.4405517578125
303.71875,11.7449951171875
302.01016998291,9.904541015625
301.631462097168,9.32568359375
302.238487243652,10.916259765625
303.325218200684,14.6610107421875
304.464088439941,19.61669921875
305.491546630859,24.2501220703125
306.525825500488,26.975341796875
307.814041137695,26.7176513671875
309.529029846191,23.3612060546875
311.665061950684,17.890869140625
314.061309814453,12.103515625
316.478218078613,7.9412841796875
318.644981384277,6.73046875
320.292434692383,8.682373046875
321.201713562012,12.9013671875
321.254600524902,17.8367919921875
320.449111938477,21.9134521484375
318.865135192871,24.0880126953125
316.636383056641,24.162841796875
313.960922241211,22.78955078125
311.135856628418,21.167236328125
308.549011230469,20.5455322265625
306.586097717285,21.736328125
305.470092773438,24.819091796875
305.109657287598,29.14013671875
305.060791015625,33.562744140625
304.66584777832,36.86572265625
303.366409301758,38.1923828125
301.045310974121,37.38818359375
298.17903137207,35.0579833984375
295.657760620117,32.2822265625
294.353927612305,30.1234130859375
294.692245483398,29.1719970703125
296.450584411621,29.326416015625
298.879928588867,29.9017333984375
301.041564941406,30.0123291015625
302.21183013916,29.04931640625
302.184173583984,26.94775390625
301.328285217285,24.0933837890625
300.343070983887,21.01220703125
299.817260742188,18.1307373046875
299.864234924316,15.7996826171875
300.074493408203,14.450439453125
299.817108154297,14.632080078125
298.680732727051,16.765625
296.772384643555,20.7469482421875
294.692352294922,25.72216796875
293.20629119873,30.2816162109375
292.812240600586,33.04296875
293.465629577637,33.34326171875
294.650459289551,31.640869140625
295.735107421875,29.353271484375
296.35913848877,28.166259765625
296.580558776855,29.1861572265625
296.72924041748,32.4049072265625
297.149703979492,36.7783203125
298.056823730469,40.84326171875
299.557174682617,43.455078125
301.714561462402,44.2247314453125
304.529418945312,43.49072265625
307.823799133301,42.00341796875
311.150421142578,40.578857421875
313.833106994629,39.8475341796875
315.18335723877,40.111328125
314.806930541992,41.2637939453125
312.815116882324,42.7784423828125
309.777397155762,43.8370361328125
306.421058654785,43.65234375
303.284080505371,41.9202880859375
300.575401306152,39.1400146484375
298.302230834961,36.503173828125
296.510482788086,35.2984619140625
295.419319152832,36.144287109375
295.364593505859,38.568603515625
296.597755432129,41.2257080078125
299.071479797363,42.6083984375
302.348442077637,41.7666015625
305.697441101074,38.6866455078125
308.315498352051,34.256103515625
309.546882629395,29.91748046875
309.022422790527,27.138427734375
306.743446350098,26.843994140625
303.152626037598,29.0118408203125
299.137474060059,32.61767578125
295.851890563965,35.98291015625
294.316627502441,37.41064453125
294.95140838623,35.9132080078125
297.321426391602,31.7095947265625
300.306716918945,26.21435546875
302.657508850098,21.4185791015625
303.653129577637,18.92919921875
303.474456787109,19.2193603515625
303.043441772461,21.4989013671875
303.420600891113,24.2239990234375
305.124122619629,25.886962890625
307.819671630859,25.7020263671875
310.544975280762,23.9224853515625
312.282295227051,21.7034912109375
312.496063232422,20.533447265625
311.341117858887,21.468505859375
309.496482849121,24.5594482421875
307.781021118164,28.8118896484375
306.769439697266,32.6864013671875
306.570671081543,34.8778076171875
306.831504821777,34.977783203125
306.926391601562,33.6839599609375
306.241119384766,32.4263916015625
304.413597106934,32.5494384765625
301.427192687988,34.5040283203125
297.554542541504,37.5140380859375
293.228492736816,39.940673828125
288.918083190918,40.1201171875
285.056762695312,37.2694091796875
282.0029296875,31.9814453125
279.988708496094,26.0836181640625
279.046485900879,21.8492431640625
278.955947875977,20.9200439453125
279.291549682617,23.466796875
279.600471496582,28.078369140625
279.623664855957,32.4603271484375
279.39274597168,34.5780029296875
279.122245788574,33.6014404296875
278.977386474609,30.178955078125
278.921943664551,25.96484375
278.77074432373,22.765869140625
278.416221618652,21.79443359375
278.030494689941,23.3009033203125
278.045310974121,26.6285400390625
278.870010375977,30.5390625
280.525810241699,33.662109375
282.469177246094,34.933349609375
283.766357421875,33.927978515625
283.554496765137,31.041015625
281.533615112305,27.41015625
278.193695068359,24.4952392578125
274.632522583008,23.4241943359375
272.0380859375,24.4766845703125
271.111671447754,27.0106201171875
271.778671264648,29.857177734375
273.356727600098,31.928955078125
275.034622192383,32.745849609375
276.230453491211,32.64794921875
276.529304504395,32.552978515625
275.294151306152,33.34912109375
271.402954101562,35.21826171875
263.439796447754,37.3450927734375
250.284881591797,38.2825927734375
231.710601806641,36.81591796875
208.602157592773,32.8028564453125
182.667587280273,27.4273681640625
155.839218139648,22.6591796875
129.7353515625,20.2337646484375
105.439041137695,20.743408203125
83.5846099853516,23.34619140625
64.5254974365234,26.24072265625
48.4015808105469,27.6370849609375
35.1252593994141,26.6524658203125
24.4172515869141,23.638916015625
15.947509765625,19.8494873046875
9.47840881347656,16.7432861328125
4.86752319335938,15.31298828125
1.90908813476562,15.679931640625
0.1685791015625,17.0478515625
-1.00650024414062,18.0286865234375
-2.2652587890625,17.2703857421875
-3.98220825195312,14.136962890625
-6.10208129882812,9.0860595703125
-8.18521118164062,3.5008544921875
-9.6026611328125,-0.938720703125
-9.81060791015625,-2.996337890625
-8.60751342773438,-2.373046875
-6.28985595703125,0.19677734375
-3.61846923828125,3.23876953125
-1.584716796875,5.1292724609375
-1.05825805664062,4.80908203125
-2.469482421875,2.2867431640625
-5.65887451171875,-1.36083984375
-9.9443359375,-4.5205078125
-14.357421875,-5.819091796875
-17.9615783691406,-4.74560546875
-20.1482849121094,-1.8377685546875
-20.8249816894531,1.6640625
-20.4219665527344,4.5228271484375
-19.7036437988281,6.1756591796875
-19.4490661621094,6.95166015625
-20.1325378417969,7.6939697265625
-21.7425231933594,9.062744140625
-23.7990417480469,10.9984130859375
-25.5544738769531,12.6910400390625
-26.2844848632812,13.06591796875
-25.5644836425781,11.470703125
-23.421875,8.1414794921875
-20.296875,4.1854248046875
-16.8328857421875,1.06884765625
-13.62109375,-0.0850830078125
-11.0368347167969,0.9791259765625
-9.2261962890625,3.5677490234375
-8.18533325195312,6.4078369140625
-7.82928466796875,8.2451171875
-7.98965454101562,8.350830078125
-8.35897827148438,6.7127685546875
-8.47509765625,3.8887939453125
-7.83494567871094,0.6864013671875
-6.13839721679688,-2.11767578125
-3.5228271484375,-3.931884765625
-0.59027099609375,-4.4351806640625
1.84219360351562,-3.615966796875
3.12326049804688,-1.766845703125
3.02374267578125,0.5987548828125
1.74093627929688,2.923583984375
-0.280105590820312,4.8299560546875
-2.55558776855469,6.2725830078125
-4.71099853515625,7.51904296875
-6.54856872558594,8.9500732421875
-8.04411315917969,10.785400390625
-9.29646301269531,12.8779296875
-10.4462127685547,14.691162109375
-11.5630950927734,15.5167236328125
-12.5250549316406,14.8294677734375
-12.9540100097656,12.59326171875
-12.2986450195312,9.3209228515625
-10.0863037109375,5.8472900390625
-6.23138427734375,2.9874267578125
-1.215576171875,1.2535400390625
3.99842834472656,0.7694091796875
8.29240417480469,1.339599609375
10.8002777099609,2.5777587890625
11.1943664550781,4.011962890625
9.75558471679688,5.1502685546875
7.22659301757812,5.5433349609375
4.51243591308594,4.8641357421875
2.33534240722656,2.997802734375
0.987823486328125,0.134033203125
0.317962646484375,-3.1893310546875
-0.078887939453125,-6.1490478515625
-0.58123779296875,-7.8558349609375
-1.32418823242188,-7.6834716796875
-2.11734008789062,-5.564697265625
-2.537841796875,-2.1185302734375
-2.16464233398438,1.493408203125
-0.85223388671875,3.9945068359375
1.13671875,4.548583984375
3.24111938476562,3.1744384765625
4.90289306640625,0.7451171875
5.85745239257812,-1.4407958984375
6.23892211914062,-2.2813720703125
6.45281982421875,-1.3258056640625
6.93157958984375,1.1510009765625
7.92617797851562,4.4073486328125
9.43293762207031,7.6258544921875
11.2663116455078,10.24755859375
13.2061309814453,12.1322021484375
15.1204223632812,13.520751953125
16.983642578125,14.8497314453125
18.8118743896484,16.5
20.5949859619141,18.599609375
22.2577209472656,20.9306640625
23.6447296142578,22.97412109375
24.5391387939453,24.0968017578125
24.7144927978516,23.8590087890625
24.0212860107422,22.3094482421875
22.4555206298828,20.0775146484375
20.1989898681641,18.18798828125
17.6162719726562,17.654052734375
15.2138519287109,19.0604248046875
13.5261535644531,22.2950439453125
12.9393005371094,26.529052734375
13.5183563232422,30.5010986328125
14.9605407714844,33.011474609375
16.7352600097656,33.428955078125
18.355712890625,31.9306640625
19.5976257324219,29.359375
20.5291290283203,26.8006591796875
21.3282775878906,25.1546630859375
22.0476989746094,24.9337158203125
22.5128173828125,26.256591796875
22.4398651123047,28.8995361328125
21.6884613037109,32.294189453125
20.4394836425781,35.5888671875
19.1453247070312,37.88427734375
18.2719573974609,38.609375
18.0150146484375,37.8525390625
18.2062835693359,36.455078125
18.4724426269531,35.775146484375
18.5270080566406,37.126220703125
18.3798370361328,41.0931396484375
18.3189086914062,47.095703125
18.6835021972656,53.53955078125
19.5948791503906,58.5228271484375
20.8331451416016,60.71875
21.9563140869141,59.9500732421875
22.5983123779297,57.2244873046875
22.7633972167969,54.2288818359375
22.8829040527344,52.5162353515625
23.546142578125,52.7237548828125
25.0596771240234,54.2481689453125
27.1564331054688,55.600830078125
29.0927581787109,55.2906494140625
30.0905456542969,52.6773681640625
29.8168334960938,48.2926025390625
28.5704498291016,43.4989013671875
27.0543670654297,39.781982421875
25.9079284667969,38.0870361328125
25.3148345947266,38.48291015625
24.9253387451172,40.25537109375
24.1255645751953,42.3643798828125
22.4789123535156,44.04443359375
20.0620269775391,45.2005615234375
17.48046875,46.3294677734375
15.5662994384766,48.02490234375
14.9788208007812,50.393798828125
15.9609680175781,52.771728515625
18.3542327880859,53.94775390625
21.7756652832031,52.82373046875
25.8088684082031,49.16552734375
30.1034851074219,43.9639892578125
34.3629760742188,39.051513671875
38.2417144775391,36.1026611328125
41.2513275146484,35.6104736328125
42.7872467041016,36.5789794921875
42.3116912841797,37.1478271484375
39.6147155761719,35.765380859375
35.0226135253906,32.1475830078125
29.4566955566406,27.473388671875
24.2970123291016,23.723876953125
21.0419616699219,22.57470703125
20.8398895263672,24.450927734375
24.0569763183594,28.302001953125
30.1024627685547,32.2216796875
37.6445159912109,34.5421142578125
45.1354370117188,34.7347412109375
51.3862609863281,33.578857421875
55.9112854003906,32.5389404296875
58.9350280761719,32.77294921875
61.1277160644531,34.42236328125
63.2359466552734,36.6064453125
65.7629241943359,38.084716796875
68.8066711425781,38.11083984375
72.0933532714844,36.943115234375
75.1654968261719,35.696044921875
77.6190643310547,35.642822265625
79.2618713378906,37.380859375
80.1039733886719,40.3626708984375
80.2083435058594,43.0948486328125
79.5273590087891,43.902099609375
77.8603210449219,41.837890625
74.9633331298828,37.2994384765625
70.7438049316406,32.01806640625
65.4325256347656,28.3814697265625
59.6277923583984,28.310546875
54.1725921630859,32.244873046875
49.9138336181641,38.8590087890625
47.4503784179688,45.7261962890625
46.9779663085938,50.549560546875
48.3092498779297,52.2467041015625
51.0390625,51.2855224609375
54.7854156494141,49.1676025390625
59.3677673339844,47.4149169921875
64.8150329589844,46.6888427734375
71.1754760742188,46.55908203125
78.2415466308594,46.0087890625
85.3865203857422,44.2662353515625
91.67041015625,41.4161376953125
96.1916046142578,38.4049072265625
98.4946899414062,36.5052490234375
98.7806701660156,36.5999755859375
97.7874450683594,38.7015380859375
96.4379272460938,41.962646484375
95.4522399902344,45.138427734375
95.1088409423828,47.2564697265625
95.2195434570312,48.107177734375
95.2792205810547,48.24560546875
94.7248382568359,48.4935302734375
93.1981201171875,49.284912109375
90.7154388427734,50.3587646484375
87.6731719970703,51.0164794921875
84.6913146972656,50.7122802734375
82.3490295410156,49.5009765625
80.9422302246094,48.0400390625
80.3679656982422,47.1617431640625
80.1975555419922,47.3311767578125
79.8800354003906,48.3265380859375
78.9637756347656,49.335693359375
77.2225952148438,49.4202880859375
74.6779632568359,48.04638671875
71.5788879394531,45.354736328125
68.3748626708984,41.9842529296875
65.6620025634766,38.607177734375
64.0692291259766,35.539794921875
64.0949554443359,32.7054443359375
65.9352569580078,29.88427734375
69.3386840820312,27.0015869140625
73.5671844482422,24.2159423828125
77.5605773925781,21.7965087890625
80.2931823730469,19.90185546875
81.1810455322266,18.4415283203125
80.3426055908203,17.1751708984375
78.5856475830078,16.03759765625
77.1044616699219,15.425537109375
76.9868316650391,16.110595703125
78.7479553222656,18.750732421875
82.1372985839844,23.34326171875
86.3316955566406,29.105712890625
90.3887939453125,34.928466796875
93.6554260253906,40.0947265625
95.8680877685547,44.773681640625
96.9492645263672,49.8980712890625
96.7582092285156,56.501708984375
95.058235168457,65.00830078125
91.728515625,75.1207275390625
87.0287780761719,86.50048828125
81.6760559082031,99.85595703125
76.6365051269531,117.676025390625
72.72802734375,144.0087890625
70.3005523681641,183.16455078125
69.2165985107422,237.77001953125
69.1150817871094,307.02978515625
69.6845016479492,386.13818359375
70.7021636962891,467.297119140625
71.8586883544922,542.015380859375
72.5995254516602,603.694580078125
72.2175445556641,649.3720703125
70.2069625854492,679.919677734375
66.6477279663086,698.718505859375
62.320442199707,709.52783203125
58.4323654174805,714.6845703125
56.1100311279297,714.498779296875
55.9577331542969,708.026123046875
57.8951873779297,694.549072265625
61.2771530151367,674.74853515625
65.1721725463867,650.83984375
68.6487426757812,625.683837890625
70.9669952392578,601.52587890625
71.6762466430664,579.148193359375
70.6706771850586,557.861328125
68.2284164428711,536.20947265625
64.9832534790039,512.861083984375
61.7806396484375,487.240966796875
59.4278411865234,459.666015625
58.4393920898438,431.032958984375
58.8679656982422,402.28076171875
60.2835540771484,373.975341796875
61.9318237304688,346.266845703125
63.0353698730469,319.191162109375
63.1461029052734,293.026123046875
62.3597259521484,268.396728515625
61.2599945068359,246.07470703125
60.5967559814453,226.595703125
60.8853149414062,209.94140625
62.1442413330078,195.48193359375
63.8791656494141,182.246337890625
65.2843170166016,169.3818359375
65.5691070556641,156.56494140625
64.2804718017578,144.122314453125
61.4835357666016,132.8271484375
57.7112731933594,123.528564453125
53.7053985595703,116.854736328125
50.0663757324219,113.068603515625
46.9912414550781,111.98486328125
44.2314758300781,112.86474609375
41.3148040771484,114.4267578125
37.9298706054688,115.150634765625
34.2589263916016,113.854248046875
31.0254211425781,110.218505859375
29.1828002929688,104.955810546875
29.38720703125,99.5048828125
31.5692596435547,95.3814697265625
34.8869781494141,93.4478759765625
38.1068725585938,93.4517822265625
40.2069396972656,94.154052734375
40.8578033447266,94.0560302734375
40.5256042480469,92.334228515625
40.1549377441406,89.36083984375
40.6424865722656,86.4683837890625
42.4043121337891,85.123046875
45.2350463867188,86.0576171875
48.475830078125,88.843017578125
51.3321380615234,92.087158203125
53.1583404541016,94.1220703125
53.5912933349609,93.852783203125
52.549560546875,91.3271484375
50.1837005615234,87.72216796875
46.8428649902344,84.7320556640625
43.0568084716797,83.6839599609375
39.4899444580078,84.8857421875
36.8241424560547,87.5489501953125
35.6181793212891,90.2490234375
36.1907653808594,91.64111328125
38.5538635253906,91.09765625
42.3906707763672,88.972900390625
47.1048431396484,86.357177734375
51.9791564941406,84.419677734375
56.42138671875,83.724365234375
60.1653900146484,83.964111328125
63.2796325683594,84.25537109375
65.9603881835938,83.744140625
68.2574157714844,82.093994140625
69.9315948486328,79.601318359375
70.5564880371094,76.9677734375
69.7943725585938,74.95263671875
67.6585693359375,74.083251953125
64.5873107910156,74.52880859375
61.2833404541016,76.164794921875
58.3957366943359,78.73583984375
56.1992492675781,81.95361328125
54.4360046386719,85.423828125
52.4306182861328,88.55517578125
49.4625549316406,90.70166015625
45.2284698486328,91.5634765625
40.1445617675781,91.51953125
35.3007049560547,91.55517578125
32.0349731445312,92.745361328125
31.3179473876953,95.5576171875
33.2726440429688,99.388671875
37.1215209960938,102.666015625
41.5839996337891,103.587646484375
45.4794006347656,101.203125
48.1754302978516,96.1845703125
49.6685180664062,90.756591796875
50.3219757080078,87.719482421875
50.4801788330078,89.08837890625
50.2133026123047,95.088134765625
49.294921875,104.0224609375
47.3821258544922,113.028076171875
44.2755737304688,119.311767578125
40.1480407714844,121.298095703125
35.6291046142578,119.179931640625
31.6766204833984,114.667236328125
29.2384490966797,110.084716796875
28.8576354980469,107.318115234375
30.4216766357422,107.08544921875
33.1853485107422,108.815673828125
36.0455627441406,111.089599609375
37.9635009765625,112.41064453125
38.37890625,111.913818359375
37.4416656494141,109.675537109375
35.9183197021484,106.5068359375
34.8013763427734,103.440673828125
34.8087768554688,101.28564453125
36.0178985595703,100.441162109375
37.8110809326172,100.94384765625
39.1466369628906,102.53515625
39.0476531982422,104.69970703125
37.0902404785156,106.73876953125
33.6549987792969,107.959228515625
29.789306640625,107.93115234375
26.7187652587891,106.7138671875
25.2587127685547,104.882080078125
25.4507446289062,103.288818359375
26.625244140625,102.64794921875
27.8241119384766,103.1669921875
28.3326568603516,104.47509765625
28.0115661621094,105.901611328125
27.2782745361328,106.89208984375
26.7859039306641,107.2490234375
27.0206756591797,107.102783203125
28.0537719726562,106.71630859375
29.5704193115234,106.27685546875
31.1084976196289,105.754150390625
32.3032836914062,104.865966796875
32.9956359863281,103.197509765625
33.1758880615234,100.4033203125
32.8646850585938,96.396728515625
32.0377044677734,91.42578125
30.6481018066406,86.05029296875
28.7432403564453,81.064453125
26.5924987792969,77.34033203125
24.7123107910156,75.5625
23.7057952880859,75.90380859375
23.9584045410156,77.780517578125
25.3746795654297,79.9384765625
27.3552703857422,80.94091796875
29.0703735351562,79.8984375
29.8916015625,77.006103515625
29.723388671875,73.52197265625
29.0305786132812,71.126953125
28.5431060791016,70.99755859375
28.835205078125,73.12744140625
30.0290985107422,76.292724609375
31.7787933349609,78.72412109375
33.5054168701172,79.13525390625
34.7264404296875,77.50634765625
35.2800903320312,75.111572265625
35.322265625,73.7568359375
35.117919921875,74.70703125
34.7763061523438,77.969970703125
34.1059112548828,82.331298828125
32.6996459960938,86.03173828125
30.2266998291016,87.69970703125
26.7565155029297,87.038330078125
22.8986053466797,84.929931640625
19.6404724121094,82.926513671875
17.9335632324219,82.447509765625
18.251708984375,84.125244140625
20.3617248535156,87.598876953125
23.4241943359375,91.757080078125
26.3702545166016,95.252197265625
28.3696670532227,97.02685546875
29.1796722412109,96.657958984375
29.1909561157227,94.434326171875
29.1365585327148,91.204833984375
29.6081085205078,88.061767578125
30.6728820800781,85.978515625
31.8348541259766,85.501708984375
32.364013671875,86.59765625
31.7673645019531,88.68359375
30.0854187011719,90.80615234375
27.8475799560547,91.93994140625
25.7560577392578,91.363037109375
24.3469848632812,88.9853515625
23.8253784179688,85.4306640625
24.1222839355469,81.763671875
25.0623168945312,78.97802734375
26.5156860351562,77.548828125
28.4509582519531,77.2978515625
30.8937225341797,77.613037109375
33.8394622802734,77.872802734375
37.1598510742188,77.822265625
40.5443420410156,77.70654296875
43.5015869140625,78.07373046875
45.4396362304688,79.397216796875
45.8440856933594,81.758056640625
44.4997406005859,84.760498046875
41.6581268310547,87.691650390625
38.0331420898438,89.82470703125
34.5796966552734,90.70947265625
32.1385345458984,90.3505859375
31.1153106689453,89.17919921875
31.3505096435547,87.808837890625
32.2645111083984,86.73974609375
33.2115783691406,86.20166015625
33.8554382324219,86.22998046875
34.3278350830078,86.822509765625
35.055419921875,87.989501953125
36.37548828125,89.657958984375
38.2275390625,91.557373046875
40.15185546875,93.2373046875
41.5791015625,94.210693359375
42.1976470947266,94.107666015625
42.1280059814453,92.751953125
41.8110046386719,90.169921875
41.7073364257812,86.580322265625
42.0349273681641,82.38427734375
42.7236633300781,78.1376953125
43.5789642333984,74.4884033203125
44.4892120361328,72.05419921875
45.5089263916016,71.21240234375
46.7673645019531,71.91748046875
48.2893676757812,73.70263671875
49.8781890869141,75.927490234375
51.1690216064453,78.0859375
51.8320159912109,79.91162109375
51.810546875,81.274658203125
51.4454040527344,82.080322265625
51.3638153076172,82.351318359375
52.1495513916016,82.35009765625
53.9544677734375,82.54638671875
56.3180084228516,83.34765625
58.3332824707031,84.78173828125
59.0743255615234,86.332275390625
58.0222320556641,87.075439453125
55.2665252685547,86.128662109375
51.4175262451172,83.214599609375
47.3438110351562,78.9912109375
43.8801727294922,74.837890625
41.6053771972656,72.144287109375
40.7290496826172,71.53515625
41.1036987304688,72.5263671875
42.3381042480469,73.803466796875
43.9472503662109,73.924560546875
45.4787139892578,72.044921875
46.5683746337891,68.32275390625
46.9541625976562,63.78955078125
46.4962921142578,59.772705078125
45.2605285644531,57.16796875
43.6154174804688,56.00732421875
42.237548828125,55.56201171875
41.9195251464844,54.851806640625
43.2033081054688,53.196044921875
46.0360717773438,50.511474609375
49.6828918457031,47.300537109375
53.0068511962891,44.4410400390625
54.9904022216797,42.8597412109375
55.2269287109375,43.1241455078125
54.1360321044922,45.08544921875
52.8203735351562,47.81640625
52.6258087158203,49.990234375
54.5718994140625,50.515625
58.8787689208984,49.09033203125
64.8113861083984,46.34765625
70.9745864868164,43.52197265625
75.9269866943359,41.776611328125
78.7901840209961,41.55517578125
79.5166854858398,42.372314453125
78.7110443115234,43.186279296875
77.1701202392578,43.099853515625
75.4554977416992,41.88134765625
73.75341796875,39.9755859375
72.0551300048828,38.111328125
70.4320983886719,36.851806640625
69.1375732421875,36.35986328125
68.4384002685547,36.388427734375
68.3398132324219,36.415283203125
68.4439392089844,35.84912109375
68.0638580322266,34.2919921875
66.5358200073242,31.77294921875
63.5534515380859,28.8414306640625
59.352912902832,26.4398193359375
54.6538848876953,25.547607421875
50.3855133056641,26.743408203125
47.30810546875,29.848388671875
45.6920928955078,33.88037109375
45.2067565917969,37.380126953125
45.0880584716797,39.0263671875
44.5106964111328,38.24267578125
42.9705047607422,35.486572265625
40.4932250976562,32.06689453125
37.6053771972656,29.5947265625
35.1237335205078,29.30517578125
33.8458404541016,31.52490234375
34.2196655273438,35.547607421875
36.1011352539062,39.98876953125
38.7393341064453,43.460205078125
41.0522918701172,45.156494140625
42.0848999023438,45.05712890625
41.4046783447266,43.736328125
39.2255249023438,41.98095703125
36.2307281494141,40.44189453125
33.2236785888672,39.4072265625
30.7911224365234,38.75341796875
29.1394348144531,38.0986328125
28.1656341552734,37.09619140625
27.6955871582031,35.685546875
27.7000122070312,34.14111328125
28.3168182373047,32.9140625
29.6770172119141,32.39501953125
31.6963500976562,32.744873046875
34.0138702392578,33.85693359375
36.1333465576172,35.4443359375
37.6636505126953,37.176513671875
38.4892272949219,38.763916015625
38.7654724121094,39.9287109375
38.7690124511719,40.3486328125
38.7420654296875,39.75048828125
38.8457489013672,38.162841796875
39.2093048095703,36.120849609375
39.9597778320312,34.537353515625
41.1467742919922,34.2294921875
42.6096038818359,35.41650390625
43.9334564208984,37.555908203125
44.6084442138672,39.624267578125
44.3296661376953,40.6494140625
43.2350921630859,40.1884765625
41.9007415771484,38.50390625
41.0616912841797,36.396240234375
41.2144622802734,34.810791015625
42.3246307373047,34.4384765625
43.8003997802734,35.494384765625
44.74755859375,37.72021484375
44.3607025146484,40.581298828125
42.2672882080078,43.50146484375
38.6870727539062,45.989013671875
34.3627014160156,47.609375
30.2818450927734,47.912353515625
27.3065948486328,46.468505859375
25.8851623535156,43.100830078125
25.9712677001953,38.177490234375
27.1471862792969,32.7412109375
28.8124694824219,28.262939453125
30.3397369384766,26.024169921875
31.2129364013672,26.460205078125
31.1808319091797,28.8603515625
30.3726348876953,31.67333984375
29.2396697998047,33.22314453125
28.291015625,32.46630859375
27.785888671875,29.4208984375
27.6220397949219,25.085205078125
27.5107574462891,20.91259765625
27.2947082519531,18.1214599609375
27.1387786865234,17.1881103515625
27.4381713867188,17.7735595703125
28.51904296875,19.083984375
30.3473205566406,20.4283447265625
32.4512786865234,21.6435546875
34.100830078125,23.09619140625
34.6279296875,25.277587890625
33.7003936767578,28.259521484375
31.4401397705078,31.427490234375
28.3829956054688,33.671875
25.3512573242188,33.9619140625
23.2810363769531,31.97607421875
22.9858245849609,28.413818359375
24.8661193847656,24.7392578125
28.6720275878906,22.417236328125
33.4979248046875,22.1064453125
38.0693511962891,23.337158203125
41.2154235839844,24.89404296875
42.2989349365234,25.631591796875
41.3960113525391,25.20947265625
39.15625,24.28173828125
36.4251251220703,24.017822265625
33.8329772949219,25.24462890625
31.5548400878906,27.8232421875
29.3518829345703,30.737060546875
26.8410186767578,32.830810546875
23.7964935302734,33.61572265625
20.3065643310547,33.52392578125
16.7252044677734,33.493408203125
13.4889678955078,34.275634765625
10.9425048828125,35.9990234375
9.25338745117188,38.223388671875
8.45237731933594,40.31396484375
8.54415893554688,41.803466796875
9.60501098632812,42.5126953125
11.7847595214844,42.42626953125
15.1812286376953,41.530029296875
19.6424560546875,39.832763671875
24.6358337402344,37.577880859375
29.3063812255859,35.392822265625
32.7483673095703,34.124755859375
34.3638916015625,34.34619140625
34.1181335449219,35.8447265625
32.5556793212891,37.496826171875
30.5772399902344,37.73046875
29.0979156494141,35.3662109375
28.7474975585938,30.352294921875
29.7001800537109,23.932373046875
31.6427154541016,18.118896484375
33.8532562255859,14.734375
35.3899993896484,14.54345703125
35.3819885253906,16.96142578125
33.3360443115234,20.443359375
29.3284606933594,23.273193359375
23.9919281005859,24.29150390625
18.3197479248047,23.2490234375
13.3683471679688,20.70703125
9.96511840820312,17.62841796875
8.53309631347656,14.9111328125
9.079345703125,13.10498046875
11.2982330322266,12.353759765625
14.7020721435547,12.47705078125
18.7167663574219,13.06103515625
22.7500915527344,13.52392578125
26.2645263671875,13.190185546875
28.8623199462891,11.474609375
30.3683929443359,8.17578125
30.8743896484375,3.780029296875
30.7146759033203,-0.481201171875
30.3426818847656,-3.006103515625
30.1492156982422,-2.51416015625
30.3159637451172,1.3154296875
30.7740325927734,7.606201171875
31.2698364257812,14.559326171875
31.5056762695312,20.081787109375
31.2851715087891,22.510009765625
30.5956420898438,21.19873046875
29.581787109375,16.771728515625
28.4230194091797,10.92529296875
27.2122497558594,5.823974609375
25.9058990478516,3.28125
24.3701782226562,4.02294921875
22.5120849609375,7.35986328125
20.4306335449219,11.474609375
18.4841461181641,14.283203125
17.1597290039062,14.463134765625
16.7500152587891,12.107177734375
17.0407867431641,8.667236328125
17.2960052490234,6.2138671875
16.6470031738281,6.4140625
14.6749877929688,9.72021484375
11.7996063232422,15.145751953125
9.17628479003906,20.761474609375
8.13731384277344,24.700927734375
9.47880554199219,26.11962890625
12.9985656738281,25.517333984375
17.5487976074219,24.220703125
21.5594635009766,23.475341796875
23.7272033691406,23.81640625
23.5290832519531,25.0703125
21.3720397949219,26.811279296875
18.3881683349609,28.80859375
15.9943237304688,31.115234375
15.3692474365234,33.774658203125
17.016357421875,36.470703125
20.5859527587891,38.502685546875
25.0608825683594,39.18212890625
29.2411956787109,38.357421875
32.2787475585938,36.613525390625
33.9626159667969,34.944580078125
34.6164855957031,34.137939453125
34.7113647460938,34.3515625
34.4905395507812,35.1748046875
33.8639984130859,36.052001953125
32.6134338378906,36.6767578125
30.7201995849609,37.1015625
28.5564422607422,37.58544921875
26.8014144897461,38.341064453125
26.1557846069336,39.32080078125
27.0218734741211,40.160400390625
29.3092956542969,40.362060546875
32.4584350585938,39.65234375
35.6607208251953,38.228271484375
38.1673126220703,36.658935546875
39.5114517211914,35.494873046875
39.5879898071289,34.88818359375
38.6244049072266,34.468505859375
37.094612121582,33.53759765625
35.5784530639648,31.454345703125
34.5774993896484,28.02978515625
34.3590469360352,23.72119140625
34.9101257324219,19.5029296875
36.0238189697266,16.465576171875
37.4408874511719,15.368896484375
38.9404144287109,16.41552734375
40.3845520019531,19.3369140625
41.827392578125,23.614013671875
43.6908721923828,28.57861328125
46.8201446533203,33.3837890625
52.2443695068359,37.025634765625
60.7209320068359,38.60546875
72.3341217041016,37.741943359375
86.3802719116211,34.86767578125
101.641105651855,31.184326171875
116.962882995605,28.242919921875
131.827156066895,27.297607421875
146.513771057129,28.7421875
161.66870880127,31.921142578125
177.540214538574,35.451904296875
193.410057067871,37.896728515625
207.623090744019,38.4013671875
218.192753791809,36.952392578125
223.616353988647,34.182373046875
223.498193740845,30.936279296875
218.741850137711,27.90380859375
211.291760921478,25.475341796875
203.521189689636,23.810302734375
197.477474212646,23.002685546875
194.257452964783,23.185546875
193.789930343628,24.445068359375
195.103427886963,26.563232421875
196.930728912354,28.803955078125
198.328224182129,30.0390625
199.020404815674,29.2529296875
199.337219238281,26.15185546875
199.838794708252,21.46337890625
200.89412689209,16.716796875
202.485246658325,13.610595703125
204.316082000732,13.29345703125
206.083673477173,15.889892578125
207.673961639404,20.45751953125
209.161994934082,25.348876953125
210.649791717529,28.82470703125
212.102767944336,29.69677734375
213.32442855835,27.76025390625
214.081115722656,23.882080078125
214.241678237915,19.692138671875
213.794309616089,16.97802734375
212.745588302612,16.99267578125
211.036800384521,19.91650390625
208.587825775146,24.733642578125
205.450017929077,29.6220703125
201.921220779419,32.7353515625
198.498666763306,33.023681640625
195.66362953186,30.70458984375
193.64331817627,27.17236328125
192.327375411987,24.388671875
191.399509429932,23.992919921875
190.608158111572,26.5224609375
189.995059967041,31.16650390625
189.941579818726,36.20751953125
190.954420089722,39.915771484375
193.293285369873,41.388427734375
196.661502838135,40.8955078125
200.201820373535,39.610107421875
202.851459980011,38.925537109375
203.868454694748,39.74658203125
203.236775875092,42.101806640625
201.687245845795,45.252197265625
200.275921344757,48.151123046875
199.72828245163,49.946044921875
199.962841033936,50.266845703125
200.161833286285,49.287841796875
199.370640277863,47.64697265625
197.206718444824,46.248779296875
194.177598953247,45.933349609375
191.400268554688,47.093017578125
189.930435180664,49.441650390625
190.13161277771,52.111572265625
191.464939117432,54.036865234375
192.812165260315,54.46435546875
193.112477302551,53.32080078125
191.923676013947,51.241455078125
189.582947015762,49.197998046875
186.940769374371,47.921875
184.909583628178,47.489990234375
184.115681171417,47.375244140625
184.792449235916,46.885009765625
186.855234622955,45.640625
190.028210401535,43.795166015625
193.929239481688,41.927978515625
198.101268053055,40.773193359375
202.050019264221,40.93310546875
205.325001716614,42.683349609375
207.625781059265,45.875732421875
208.87686920166,49.94482421875
209.22597694397,53.9814453125
208.95690870285,56.9384765625
208.354890823364,57.98095703125
207.606902122498,56.885986328125
206.777194976807,54.2490234375
205.848777770996,51.318603515625
204.770746231079,49.478515625
203.484751701355,49.6318359375
201.949639320374,51.7900390625
200.187983512878,55.0869140625
198.336743831635,58.195556640625
196.635946273804,59.9052734375
195.326267719269,59.563232421875
194.507400035858,57.2333984375
194.069864749908,53.588134765625
193.748497962952,49.634033203125
193.251289367676,46.378173828125
192.372736930847,44.5302734375
191.033689022064,44.33642578125
189.265293598175,45.551513671875
187.177683323622,47.55615234375
184.932826519012,49.572021484375
182.719065666199,50.920166015625
180.711533546448,51.263427734375
179.050527572632,50.723388671875
177.846124649048,49.808349609375
177.202419281006,49.125
177.22806930542,49.03076171875
178.009922027588,49.460693359375
179.534760475159,50.018310546875
181.578623771667,50.231201171875
183.625144004822,49.78662109375
184.926586151123,48.6318359375
184.758563995361,46.97412109375
182.791223526001,45.21240234375
179.36736869812,43.867919921875
175.483671188354,43.504638671875
172.417110443115,44.5263671875
171.158308029175,46.843017578125
171.955316543579,49.612548828125
174.198944091797,51.374755859375
176.702224731445,50.6591796875
178.215915679932,46.74609375
177.943813323975,40.1591796875
175.83065032959,32.598876953125
172.516159057617,26.34033203125
168.998073577881,23.30810546875
166.175224304199,24.22802734375
164.48335647583,28.258544921875
163.79390335083,33.36474609375
163.621379852295,37.314697265625
163.503007888794,38.788818359375
163.325834274292,37.9736328125
163.395921707153,36.30712890625
164.193113327026,35.558837890625
165.951959609985,36.816650390625
168.335789680481,39.94677734375
170.458992004395,43.8076171875
171.296303749084,47.01318359375
170.252856254578,48.731201171875
167.538009643555,49.0078125
164.127857208252,48.4873046875
161.342084884644,47.80078125
160.259469985962,47.16015625
161.257453918457,46.400146484375
163.862846374512,45.3623046875
166.963987350464,44.191650390625
169.281000137329,43.31494140625
169.908476352692,43.171630859375
168.698375225067,43.94580078125
166.279159545898,45.457275390625
163.695694923401,47.1982421875
161.864003181458,48.5029296875
161.157804489136,48.809326171875
161.343076705933,47.932373046875
161.851724624634,46.178955078125
162.205698013306,44.2451171875
162.344331741333,43.0068359375
162.663146972656,43.236328125
163.749034881592,45.276123046875
165.970932006836,48.7392578125
169.165242195129,52.494140625
172.598428726196,55.131103515625
175.241281509399,55.7333984375
176.222515106201,54.46240234375
175.228525161743,52.49853515625
172.656959533691,51.318115234375
169.48267364502,51.815185546875
166.932468414307,53.826171875
166.092945098877,56.3095703125
167.549795150757,57.96044921875
171.157976150513,57.884765625
176.033996582031,56.008056640625
180.819066047668,53.046630859375
184.148937225342,50.0966796875
185.163064002991,48.07763671875
183.842023849487,47.347412109375
181.006948471069,47.635986328125
177.948593139648,48.278076171875
175.843620300293,48.600341796875
175.23558807373,48.30859375
175.845098495483,47.6640625
176.793201446533,47.306396484375
177.11358833313,47.803466796875
176.274942398071,49.219482421875
174.451463699341,51.0146484375
172.397789001465,52.340576171875
170.989673614502,52.527099609375
170.671794891357,51.454345703125
171.144012451172,49.588134765625
171.515819549561,47.697509765625
170.869171142578,46.445556640625
168.87410736084,46.086181640625
166.035430908203,46.403076171875
163.411552429199,46.918701171875
162.00821685791,47.23095703125
162.236568450928,47.236572265625
163.745166778564,47.12744140625
165.659725189209,47.197998046875
167.039535522461,47.616943359375
167.286354064941,48.2890625
166.337333679199,48.861572265625
164.627899169922,48.911376953125
162.882965087891,48.22216796875
161.827529907227,46.94287109375
161.91720199585,45.472900390625
163.186912536621,44.163330078125
165.296195983887,43.099853515625
167.767105102539,42.150146484375
170.287113189697,41.204345703125
172.878925323486,40.382568359375
175.805660247803,40.064453125
179.286344528198,40.684326171875
183.241317749023,42.407470703125
187.258676528931,44.871826171875
190.772663116455,47.19677734375
193.305246353149,48.311279296875
194.612537384033,47.4912109375
194.697061538696,44.843017578125
193.742059707642,41.4140625
192.027360916138,38.778076171875
189.85239982605,38.277587890625
187.481227874756,40.37353515625
185.119346618652,44.480712890625
182.926607131958,49.347900390625
181.041906356812,53.72802734375
179.619125366211,56.9453125
178.834035873413,59.09716796875
178.840309143066,60.7763671875
179.668601989746,62.542724609375
181.148073196411,64.503173828125
182.941026687622,66.324462890625
184.690412521362,67.634765625
186.182424545288,68.41259765625
187.402368545532,69.0380859375
188.434566497803,69.98828125
189.291290283203,71.444580078125
189.796798706055,73.0625
189.60671043396,74.05419921875
188.324901580811,73.586181640625
185.65962600708,71.360107421875
181.573125839233,68.022216796875
176.397075653076,65.052978515625
170.87265586853,64.049072265625
166.046148300171,65.791748046875
162.976005554199,69.695068359375
162.332160949707,74.044677734375
164.061870574951,76.90234375
167.350078582764,77.1748046875
170.969535827637,75.206298828125
173.885622024536,72.5517578125
175.726219177246,71.058837890625
176.743307113647,71.8291015625
177.243618011475,74.67529296875
176.908470153809,78.340576171875
174.544448852539,81.2578125
168.485679626465,82.35546875
157.425491333008,81.511474609375
141.164932250977,79.479248046875
120.827228546143,77.3681640625
98.4253807067871,75.9921875
76.068229675293,75.459716796875
55.3041000366211,75.249755859375
36.9437103271484,74.677490234375
21.3206787109375,73.40478515625
8.65508270263672,71.640625
-0.818832397460938,69.952392578125
-7.00016784667969,68.871826171875
-10.1602172851562,68.637451171875
-11.0174026489258,69.20751953125
-10.5550537109375,70.40966796875
-9.67677307128906,72.007080078125
-8.89291381835938,73.65478515625
-8.22285461425781,74.900634765625
-7.35343933105469,75.3349609375
-5.94017028808594,74.795654296875
-3.8612060546875,73.478759765625
-1.29006958007812,71.83203125
1.39366149902344,70.26904296875
3.75007629394531,68.87939453125
5.37770080566406,67.3720703125
5.96931457519531,65.32861328125
5.38301086425781,62.59326171875
3.73612976074219,59.477783203125
1.45039367675781,56.6416015625
-0.854110717773438,54.740478515625
-2.6058349609375,54.08251953125
-3.53189086914062,54.471923828125
-3.741455078125,55.313232421875
-3.57952880859375,55.927490234375
-3.36578369140625,55.922119140625
-3.22628784179688,55.4091796875
-3.13357543945312,54.934814453125
-3.07882690429688,55.14453125
-3.17683410644531,56.357177734375
-3.5726318359375,58.29833984375
-4.21507263183594,60.146240234375
-4.71772766113281,60.8935546875
-4.46661376953125,59.822509765625
-2.9384765625,56.847900390625
-0.0177459716796875,52.546142578125
3.89201354980469,47.87744140625
8.0042724609375,43.77294921875
11.435546875,40.84375
13.4863739013672,39.298828125
13.8203582763672,39.019775390625
12.5153045654297,39.667236328125
10.0035400390625,40.767822265625
6.93705749511719,41.810302734375
4.01181030273438,42.387451171875
1.78179931640625,42.3544921875
0.50518798828125,41.961181640625
0.083099365234375,41.842041015625
0.140304565429688,42.763916015625
0.237548828125,45.1572265625
0.103225708007812,48.693603515625
-0.257827758789062,52.261474609375
-0.64532470703125,54.48681640625
-0.87188720703125,54.518798828125
-0.970443725585938,52.5888671875
-1.30502319335938,49.970458984375
-2.52070617675781,48.374755859375
-5.31008911132812,49.132080078125
-10.0334320068359,52.550048828125
-16.3770599365234,57.731201171875
-23.2880401611328,62.9130859375
-29.2837371826172,66.238037109375
-32.9940338134766,66.609375
-33.6464691162109,64.2177734375
-31.2888336181641,60.461181640625
-26.7464599609375,57.309326171875
-21.3866577148438,56.3896484375
-16.7450866699219,58.190673828125
-14.0684661865234,61.747314453125
-13.9146270751953,65.051025390625
-15.9863739013672,66.057861328125
-19.2909545898438,63.79541015625
-22.58740234375,58.95654296875
-24.9582672119141,53.609130859375
-26.2491607666016,50.165771484375
-27.1120910644531,50.150146484375
-28.5799560546875,53.4326171875
-31.4134674072266,58.336181640625
-35.6226348876953,62.5615234375
-40.4557647705078,64.420654296875
-44.8243255615234,63.669921875
-47.8607177734375,61.5185546875
-49.2660217285156,59.857666015625
-49.3102874755859,60.204833984375
-48.6049346923828,62.958984375
-47.8344879150391,67.296875
-47.5331878662109,71.661376953125
-47.9058837890625,74.532470703125
-48.7350006103516,75.09326171875
-49.4448699951172,73.510009765625
-49.3573760986328,70.780517578125
-48.0516052246094,68.261474609375
-45.6437835693359,67.104736328125
-42.8166656494141,67.805908203125
-40.5513000488281,70.033447265625
-39.6996459960938,72.772705078125
-40.6321105957031,74.753662109375
-43.1331787109375,74.9951171875
-46.5844116210938,73.25537109375
-50.3119049072266,70.193603515625
-53.8900451660156,67.147216796875
-57.2243499755859,65.567138671875
-60.3634338378906,66.337646484375
-63.1800842285156,69.292724609375
-65.1505889892578,73.21240234375
-65.4319000244141,76.333984375
-63.2313995361328,77.171875
-58.2803344726562,75.25830078125
-51.146240234375,71.420166015625
-43.1799011230469,67.3974609375
-36.0663452148438,65.00244140625
-31.1674499511719,65.26611328125
-28.9752349853516,68.020263671875
-28.9680633544922,72.031005859375
-29.9082946777344,75.5400390625
-30.4052276611328,77.008544921875
-29.4684295654297,75.80322265625
-26.8705749511719,72.5625
-23.2301025390625,68.974609375
-19.8017730712891,66.984375
-18.0099639892578,67.801025390625
-18.8644409179688,71.240234375
-22.4898223876953,75.778076171875
-28.0012512207031,79.30029296875
-33.8189392089844,80.187744140625
-38.2827758789062,78.19091796875
-40.3003692626953,74.6162109375
-39.7266845703125,71.668701171875
-37.3145599365234,71.27880859375
-34.2781524658203,74.1025390625
-31.7136688232422,79.22607421875
-30.1701812744141,84.660400390625
-29.5536193847656,88.296630859375
-29.3436584472656,88.830078125
-28.9542083740234,86.296630859375
-28.0371246337891,81.994140625
-26.6263275146484,77.853515625
-25.099365234375,75.5390625
-23.9975433349609,75.742431640625
-23.7600250244141,77.980712890625
-24.4681701660156,80.927978515625
-25.7367401123047,83.055908203125
-26.8394775390625,83.306640625
-27.0199279785156,81.51904296875
-25.8201141357422,78.432373046875
-23.2476043701172,75.2685546875
-19.7421875,73.109130859375
-15.9867553710938,72.384521484375
-12.6291732788086,72.736572265625
-10.0185928344727,73.29150390625
-8.07633972167969,73.17333984375
-6.38166046142578,71.974365234375
-4.41365051269531,69.952392578125
-1.79663848876953,67.855712890625
1.56452941894531,66.489990234375
5.48745727539062,66.258544921875
9.60981750488281,66.934814453125
13.5191802978516,67.79150390625
16.857795715332,68.044677734375
19.3722686767578,67.350341796875
20.9383697509766,66.04833984375
21.5898590087891,65.00390625
21.5618515014648,65.137451171875
21.2890014648438,66.86669921875
21.3327407836914,69.781005859375
22.2401885986328,72.726318359375
24.3748397827148,74.348388671875
27.7952270507812,73.80322265625
32.2143936157227,71.22265625
37.0415878295898,67.64404296875
41.4792556762695,64.4775390625
44.6691665649414,62.829345703125
45.8994522094727,63.016845703125
44.8417282104492,64.4482421875
41.7349166870117,65.898681640625
37.4009552001953,66.0869140625
33.028564453125,64.3212890625
29.7753524780273,60.886474609375
28.3539657592773,56.938232421875
28.7848510742188,53.971435546875
30.4341201782227,53.133056640625
32.319953918457,54.739013671875
33.5386734008789,58.175048828125
33.6125640869141,62.208740234375
32.5886001586914,65.548095703125
30.8780517578125,67.379150390625
28.960090637207,67.60400390625
27.1464538574219,66.67529296875
25.5349197387695,65.19677734375
24.1227569580078,63.59814453125
22.9474868774414,62.0908203125
22.1269454956055,60.811279296875
21.7890472412109,59.9443359375
21.9532089233398,59.7001953125
22.4635696411133,60.228515625
23.0392227172852,61.53515625
23.4105606079102,63.436767578125
23.4535675048828,65.550537109375
23.2490692138672,67.38525390625
23.0629959106445,68.54736328125
23.2729949951172,68.992431640625
24.2582626342773,69.144287109375
26.2746276855469,69.762451171875
29.3406677246094,71.557861328125
33.181282043457,74.73779296875
37.2534255981445,78.753173828125
40.8766632080078,82.45654296875
43.4506759643555,84.654296875
44.6921768188477,84.784912109375
44.7590179443359,83.302734375
44.1653366088867,81.467041015625
43.5215225219727,80.624267578125
43.2556457519531,81.416748046875
43.4841461181641,83.436767578125
44.0811004638672,85.531982421875
44.8517761230469,86.525634765625
45.6636505126953,85.908203125
46.4724044799805,84.0947265625
47.2610168457031,82.14013671875
47.9832763671875,81.091796875
48.5590362548828,81.35009765625
48.9318084716797,82.38818359375
49.11865234375,83.013671875
49.1849899291992,82.0546875
49.1278686523438,79.1318359375
48.7469635009766,75.043212890625
47.622932434082,71.531005859375
45.2777938842773,70.454833984375
41.4580841064453,72.748779296875
36.381103515625,77.729736328125
30.7747039794922,83.2216796875
25.6554946899414,86.580078125
21.9323959350586,86.072021484375
20.0167617797852,81.832275390625
19.6397933959961,75.800537109375
19.9841003417969,70.674072265625
20.0839309692383,68.47900390625
19.2730484008789,69.566650390625
17.4489822387695,72.57080078125
15.0274810791016,75.29931640625
12.6604766845703,76.00439453125
10.890007019043,74.30126953125
9.92205810546875,71.284423828125
9.60780334472656,68.816650390625
9.6097412109375,68.425048828125
9.60624694824219,70.416748046875
9.40361785888672,73.689697265625
8.9173583984375,76.369140625
8.09287261962891,76.88330078125
6.8458251953125,74.869140625
5.06926727294922,71.35302734375
2.70236206054688,68.099609375
-0.164329528808594,66.547607421875
-3.20053100585938,67.0390625
-5.83745574951172,68.814208984375
-7.40675354003906,70.657470703125
-7.39598846435547,71.663818359375
-5.69046020507812,71.643798828125
-2.65850830078125,71.082275390625
0.988471984863281,70.791015625
4.50334167480469,71.5224609375
7.41193389892578,73.761962890625
9.64862060546875,77.80859375
11.4536819458008,83.94140625
13.1275329589844,92.35498046875
14.8025894165039,102.802734375
16.3427963256836,114.356201171875
17.37841796875,125.790283203125
17.448112487793,136.624267578125
16.2160110473633,148.235107421875
13.7184295654297,164.2177734375
10.5171508789062,189.530517578125
7.60793304443359,228.64453125
6.03340911865234,283.450439453125
6.35439300537109,351.920166015625
8.2883415222168,428.20166015625
10.7735900878906,504.21240234375
12.4436340332031,572.041748046875
12.2285041809082,626.09912109375
9.73868560791016,664.162109375
5.27131271362305,687.116455078125
-0.458786010742188,697.828125
-6.62126922607422,699.8349609375
-12.4356803894043,696.35595703125
-17.2184181213379,689.78955078125
-20.4415969848633,681.64794921875
-21.8836059570312,672.720703125
-21.818775177002,663.226806640625
-21.0464973449707,652.861083984375
-20.6244926452637,640.88623046875
-21.3863639831543,626.503173828125
-23.5235939025879,609.42626953125
-26.5082473754883,590.243408203125
-29.3998031616211,570.221435546875
-31.3224563598633,550.62451171875
-31.8450698852539,532.048583984375
-31.0911254882812,514.212890625
-29.5918045043945,496.270263671875
-27.9970703125,477.344970703125
-26.802116394043,456.950439453125
-26.2244491577148,435.155029296875
-26.2370223999023,412.478515625
-26.6783142089844,389.605224609375
-27.3312759399414,367.068359375
-27.9626312255859,345.0927734375
-28.3871078491211,323.692626953125
-28.5897598266602,302.935791015625
-28.8121948242188,283.181884765625
-29.4742813110352,265.117919921875
-30.913215637207,249.517333984375
-33.1144027709961,236.8564453125
-35.6424407958984,226.99365234375
-37.8356704711914,219.110107421875
-39.1328887939453,212.009033203125
-39.3345184326172,204.654541015625
-38.6467742919922,196.656982421875
-37.4963531494141,188.40185546875
-36.2257690429688,180.725830078125
-34.8741760253906,174.37646484375
-33.1935348510742,169.59716796875
-30.9071578979492,166.02099609375
-28.0359878540039,162.86376953125
-25.0827255249023,159.255859375
-22.9300308227539,154.570556640625
-22.4779968261719,148.642578125
-24.2164916992188,141.8310546875
-27.9590454101562,134.963623046875
-32.8656921386719,129.164306640625
-37.7302398681641,125.515625
-41.4242477416992,124.59326171875
-43.3457794189453,126.083984375
-43.6715545654297,128.77490234375
-43.2431488037109,130.99267578125
-43.0891571044922,131.305419921875
-43.8190765380859,129.137451171875
-45.2262420654297,125.009033203125
-46.3353729248047,120.2724609375
-45.9055633544922,116.48486328125
-43.1465911865234,114.725830078125
-38.2643890380859,115.16015625
-32.5021667480469,117.012451171875
-27.613166809082,118.9765625
-25.0570755004883,119.85205078125
-25.3766479492188,119.106201171875
-28.091194152832,117.053955078125
-32.0943069458008,114.5732421875
-36.2453460693359,112.53515625
-39.8102493286133,111.329345703125
-42.570068359375,110.804443359375
-44.6599731445312,110.603759765625
-46.3148040771484,110.576416015625
-47.7134780883789,110.8583984375
-48.960090637207,111.621826171875
-50.1192932128906,112.74169921875
-51.1996459960938,113.714599609375
-52.0831298828125,113.9111328125
-52.4978332519531,112.957275390625
-52.1091766357422,110.970947265625
-50.7168121337891,108.514892578125
-48.4657363891602,106.3115234375
-45.9355392456055,104.881591796875
-44.0013961791992,104.2783203125
-43.4858169555664,104.01708984375
-44.7559967041016,103.2578125
-47.4975738525391,101.2177734375
-50.8041839599609,97.651611328125
-53.5399780273438,93.10888671875
-54.8100128173828,88.78125
-54.3139724731445,85.953369140625
-52.4101409912109,85.3486328125
-49.8549880981445,86.73779296875
-47.3573226928711,89.06884765625
-45.2053451538086,91.061767578125
-43.179443359375,91.894775390625
-40.7642211914062,91.58447265625
-37.5184631347656,90.826171875
-33.4096069335938,90.467041015625
-28.9590530395508,90.987548828125
-25.1159744262695,92.29443359375
-22.9064559936523,93.887939453125
-23.0143127441406,95.259521484375
-25.4906539916992,96.26025390625
-29.6985473632812,97.203857421875
-34.4920120239258,98.591796875
-38.5687713623047,100.670166015625
-40.8968200683594,103.171875
-41.0500869750977,105.479248046875
-39.2872467041016,107.05419921875
-36.3238677978516,107.7978515625
-32.9419937133789,108.04443359375
-29.6807098388672,108.22998046875
-26.771354675293,108.53515625
-24.2872924804688,108.80029296875
-22.3274993896484,108.763427734375
-21.0580062866211,108.36376953125
-20.580810546875,107.8427734375
-20.7593612670898,107.56005859375
-21.1795501708984,107.703125
-21.3104476928711,108.11767578125
-20.7775421142578,108.39111328125
-19.5661697387695,108.1298828125
-18.0442657470703,107.22412109375
-16.8023986816406,105.90673828125
-16.4256591796875,104.5810546875
-17.3173446655273,103.601318359375
-19.6283645629883,103.173828125
-23.2297668457031,103.41015625
-27.6769638061523,104.409912109375
-32.1961517333984,106.248046875
-35.7990646362305,108.882568359375
-37.5914611816406,112.04833984375
-37.1648483276367,115.212158203125
-34.8581237792969,117.66162109375
-31.6958694458008,118.719482421875
-29.0052795410156,118.037841796875
-27.8821792602539,115.804443359375
-28.7665710449219,112.72509765625
-31.3284530639648,109.801513671875
-34.7160568237305,108.04931640625
-38.0187454223633,108.279296875
-40.6825790405273,110.925537109375
-42.651237487793,115.880859375
-44.1990280151367,122.41357421875
-45.5922698974609,129.28857421875
-46.826301574707,135.111572265625
-47.6079559326172,138.755615234375
-47.5919723510742,139.687255859375
-46.6905517578125,138.113037109375
-45.2347640991211,134.913818359375
-43.8825912475586,131.35791015625
-43.3117980957031,128.641357421875
-43.8729400634766,127.423583984375
-45.4032897949219,127.596435546875
-47.3300247192383,128.41650390625
-49.022087097168,128.923583984375
-50.1760482788086,128.432373046875
-50.9834442138672,126.85400390625
-51.9813232421875,124.705810546875
-53.6808395385742,122.7705078125
-56.2065048217773,121.59130859375
-59.1600189208984,121.105712890625
-61.7859191894531,120.7060546875
-63.3387908935547,119.684326171875
-63.4357376098633,117.72802734375
-62.1896438598633,115.12255859375
-60.0691604614258,112.562255859375
-57.5905990600586,110.73291015625
-55.0512847900391,109.969482421875
-52.4443893432617,110.19384765625
-49.5797424316406,111.11328125
-46.3059692382812,112.492431640625
-42.7066879272461,114.24755859375
-39.1704025268555,116.28759765625
-36.2866058349609,118.2646484375
-34.6100234985352,119.48779296875
-34.4091949462891,119.15869140625
-35.5271301269531,116.80615234375
-37.4253845214844,112.67138671875
-39.3698196411133,107.791015625
-40.6785583496094,103.679443359375
-40.9241943359375,101.72998046875
-40.0282592773438,102.6171875
-38.243293762207,105.982177734375
-36.0438079833984,110.548828125
-33.9629898071289,114.608154296875
-32.4157180786133,116.671630859375
-31.5603637695312,116.066162109375
-31.2368621826172,113.246826171875
-31.012825012207,109.643798828125
-30.3734741210938,107.005859375
-29.0064849853516,106.4814453125
-27.0456161499023,107.95458984375
-25.0884857177734,110.11669921875
-23.9314880371094,111.297607421875
-24.1517562866211,110.53271484375
-25.7744674682617,108.181884765625
-28.2126083374023,105.75830078125
-30.5084991455078,105.08154296875
-31.7388610839844,107.240966796875
-31.3990631103516,111.905517578125
-29.5921478271484,117.389892578125
-26.9539489746094,121.47265625
-24.3633880615234,122.531982421875
-22.5598983764648,120.35693359375
-21.8162460327148,116.192138671875
-21.8003845214844,112.072021484375
-21.7052459716797,109.882568359375
-20.6218490600586,110.64208984375
-18.0139007568359,114.203857421875
-14.0747756958008,119.38037109375
-9.76798248291016,124.38818359375
-6.49028015136719,127.5
-5.49373245239258,127.7021484375
-7.31683731079102,125.07861328125
-11.4933319091797,120.75732421875
-16.6623840332031,116.437255859375
-21.0480880737305,113.692626953125
-23.1117782592773,113.34423828125
-22.1105041503906,115.141357421875
-18.3394927978516,117.916259765625
-12.972770690918,120.180419921875
-7.56820297241211,120.86279296875
-3.43598556518555,119.81298828125
-1.15151596069336,117.80810546875
-0.425323486328125,116.104248046875
-0.376201629638672,115.811279296875
-0.0586662292480469,117.37451171875
1.02030563354492,120.358642578125
2.64487838745117,123.595703125
4.00657653808594,125.724609375
4.11128997802734,125.927001953125
2.25179290771484,124.4619140625
-1.68230438232422,122.61376953125
-7.16427612304688,122.01513671875
-13.2357177734375,123.755615234375
-18.8601150512695,127.8125
-23.2699966430664,133.093505859375
-26.1565093994141,137.99658203125
-27.614990234375,141.138427734375
-27.9020690917969,141.878173828125
-27.1741485595703,140.456298828125
-25.3845443725586,137.778564453125
-22.3986968994141,134.981689453125
-18.2381591796875,132.98388671875
-13.2987289428711,132.181640625
-8.38810348510742,132.39013671875
-4.54336166381836,133.0263671875
-2.69813919067383,133.43994140625
-3.36199951171875,133.236328125
-6.46299743652344,132.400634765625
-11.3929748535156,131.152587890625
-17.1969909667969,129.66357421875
-22.8032531738281,127.910888671875
-27.2519760131836,125.797607421875
-29.9009399414062,123.405517578125
-30.5732498168945,121.1259765625
-29.5708389282227,119.547607421875
-27.5349884033203,119.17529296875
-25.2176971435547,120.175537109375
-23.2675704956055,122.270263671875
-22.0835952758789,124.810302734375
-21.7625122070312,126.96240234375
-22.1335754394531,127.958984375
-22.8820648193359,127.37109375
-23.7151870727539,125.34423828125
-24.4712524414062,122.67138671875
-25.0936965942383,120.553955078125
-25.5144577026367,120.05908203125
-25.5946960449219,121.513427734375
-25.1961975097656,124.255126953125
-24.332160949707,126.983154296875
-23.2626190185547,128.52294921875
-22.4254684448242,128.478271484375
-22.1907653808594,127.346923828125
-22.5992202758789,126.088134765625
-23.3145599365234,125.533203125
-23.8793182373047,126.020751953125
-24.0895843505859,127.34912109375
-24.1839752197266,128.92333984375
-24.7035751342773,129.929931640625
-26.1362075805664,129.536865234375
-28.6185684204102,127.133544921875
-31.870964050293,122.567138671875
-35.3496246337891,116.29443359375
-38.4408645629883,109.36962890625
-40.57421875,103.228759765625
-41.2818603515625,99.2880859375
-40.3136215209961,98.459228515625
-37.8222198486328,100.759033203125
-34.4923248291016,105.2060546875
-31.4346389770508,110.1142578125
-29.8179626464844,113.689453125
-30.3835067749023,114.72216796875
-33.0851669311523,113.11376953125
-37.0647354125977,109.979248046875
-41.0051727294922,107.18408203125
-43.694694519043,106.451904296875
-44.5050201416016,108.4814453125
-43.5597686767578,112.57861328125
-41.5727386474609,117.030517578125
-39.5161514282227,119.971923828125
-38.2749481201172,120.26318359375
-38.3826751708984,117.969482421875
-39.8563385009766,114.27783203125
-42.1869812011719,110.9248046875
-44.5136337280273,109.357666015625
-45.958869934082,110.010009765625
-45.9871978759766,112.1142578125
-44.6109771728516,114.18603515625
-42.3452682495117,114.897705078125
-39.9396514892578,113.8115234375
-38.0475769042969,111.5517578125
-37.0025482177734,109.39404296875
-36.807373046875,108.557373046875
-37.2931137084961,109.59912109375
-38.2938842773438,112.1708984375
-39.7006149291992,115.214599609375
-41.4053039550781,117.461669921875
-43.2601547241211,118.019775390625
-45.1300964355469,116.76806640625
-46.9787826538086,114.417724609375
-48.8743209838867,112.234619140625
-50.8831024169922,111.532470703125
-52.9426193237305,113.094482421875
-54.8079376220703,116.739990234375
-56.1039657592773,121.26806640625
-56.4346389770508,124.920166015625
-55.492301940918,126.2138671875
-53.1331558227539,124.72412109375
-49.4169158935547,121.375244140625
-44.6378936767578,118.06982421875
-39.3171234130859,116.812255859375
-34.1152648925781,118.7197265625
-29.6515579223633,123.41650390625
-26.3169555664062,129.1865234375
-24.1885681152344,133.855224609375
-23.0982131958008,135.919189453125
-22.7910842895508,135.252685546875
-23.0560607910156,133.06396484375
-23.7562637329102,131.171630859375
-24.7900238037109,131.021484375
-26.070068359375,132.90966796875
-27.5692749023438,135.809814453125
-29.3891372680664,137.91259765625
-31.770393371582,137.63037109375
-34.974494934082,134.53662109375
-39.0689086914062,129.706787109375
-43.7234191894531,125.248779296875
-48.1759262084961,123.23388671875
-51.4434356689453,124.59228515625
-52.7120208740234,128.563232421875
-51.6880111694336,133.037841796875
-48.7065505981445,135.636474609375
-44.556396484375,134.935302734375
-40.1606597900391,131.1611328125
-36.2828979492188,126.013671875
-33.3561019897461,121.811767578125
-31.4703140258789,120.457275390625
-30.503059387207,122.689453125
-30.3109664916992,127.8251953125
-30.8450927734375,134.0234375
-32.1042251586914,139.014892578125
-33.9686508178711,141.05810546875
-36.0582962036133,139.7109375
-37.7557754516602,136.015869140625
-38.4324645996094,131.9716796875
-37.7524032592773,129.529541015625
-35.8541564941406,129.629638671875
-33.2922668457031,131.757568359375
-30.7523727416992,134.258544921875
-28.718635559082,135.23486328125
-27.3110809326172,133.5810546875
-26.4025001525879,129.611328125
-25.8941192626953,124.875244140625
-25.8983039855957,121.23828125
-26.6737365722656,119.7841796875
-28.3809127807617,120.24755859375
-30.8758392333984,121.328125
-33.7095108032227,121.634521484375
-36.3310775756836,120.616455078125
-38.3615875244141,118.863525390625
-39.7751846313477,117.571044921875
-40.87744140625,117.544189453125
-42.1113662719727,118.4921875
-43.8088302612305,119.157958984375
-46.0191116333008,118.21142578125
-48.4883575439453,115.2431640625
-50.7612991333008,111.114013671875
-52.3447036743164,107.43359375
-52.86865234375,105.581298828125
-52.2152328491211,105.951416015625
-50.5859222412109,107.8349609375
-48.482551574707,109.916259765625
-46.5699157714844,110.9990234375
-45.4527740478516,110.567626953125
-45.4713897705078,108.908203125
-46.6202621459961,106.8125
-48.6291732788086,105.086181640625
-51.1340789794922,104.192626953125
-53.8191680908203,104.198974609375
-56.4616012573242,104.932373046875
-58.9025802612305,106.14111328125
-61.0469436645508,107.54150390625
-62.9301834106445,108.8037109375
-64.8082885742188,109.570556640625
-67.1359176635742,109.545654296875
-70.3557205200195,108.627685546875
-74.5741500854492,107.036376953125
-79.3453826904297,105.2783203125
-83.7397766113281,103.871826171875
-86.6913604736328,102.965576171875
-87.4444580078125,102.16015625
-85.8889541625977,100.754150390625
-82.6579513549805,98.266845703125
-78.9483795166016,94.899658203125
-76.109375,91.61962890625
-75.1268005371094,89.811279296875
-76.2389526367188,90.64599609375
-78.894172668457,94.464599609375
-82.0844192504883,100.48095703125
-84.8462677001953,106.991943359375
-86.6517639160156,112.04150390625
-87.5049285888672,114.218505859375
-87.753547668457,113.195068359375
-87.7844467163086,109.74560546875
-87.8048248291016,105.28271484375
-87.8051986694336,101.247314453125
-87.6767349243164,98.650390625
-87.3530578613281,97.888671875
-86.8739852905273,98.76611328125
-86.3513565063477,100.609619140625
-85.8844375610352,102.48291015625
-85.5023803710938,103.452392578125
-85.1651840209961,102.83349609375
-84.8074722290039,100.39990234375
-84.3893432617188,96.51904296875
-83.9174880981445,92.121826171875
-83.4248199462891,88.379638671875
-82.8927154541016,86.168701171875
-82.1696929931641,85.60595703125
-80.9507675170898,85.981201171875
-78.892951965332,86.166748046875
-75.8607711791992,85.30859375
-72.1447982788086,83.381103515625
-68.4591522216797,81.2607421875
-65.6672134399414,80.22998046875
-64.4089508056641,81.19775390625
-64.8672103881836,84.132080078125
-66.7758636474609,88.058837890625
-69.5966186523438,91.62451171875
-72.7280120849609,93.855712890625
-75.6796875,94.6396484375
-78.1859359741211,94.635009765625
-80.2566680908203,94.719482421875
-82.1359786987305,95.399658203125
-84.1776657104492,96.576904296875
-86.6618576049805,97.754150390625
-89.6155242919922,98.44775390625
-92.7115097045898,98.47216796875
-95.3378219604492,97.918701171875
-96.85302734375,96.945068359375
-96.9358520507812,95.60986328125
-95.8223266601562,93.920166015625
-94.2677688598633,92.004150390625
-93.2455978393555,90.191162109375
-93.539665222168,88.892333984375
-95.4493713378906,88.3505859375
-98.7260894775391,88.42431640625
-102.711006164551,88.56298828125
-106.592163085938,88.05810546875
-109.661926269531,86.44921875
-111.498748779297,83.828369140625
-111.997253417969,80.813720703125
-111.258712768555,78.20166015625
-109.467910766602,76.528076171875
-106.879043579102,75.844482421875
-103.881973266602,75.829345703125
-101.021430969238,76.09716796875
-98.8673400878906,76.456298828125
-97.7929382324219,76.962158203125
-97.8077011108398,77.7900390625
-98.5401611328125,79.048583984375
-99.3869094848633,80.62744140625
-99.7259063720703,82.15576171875
-99.1029739379883,83.118408203125
-97.3107070922852,83.072021484375
-94.3710556030273,81.857666015625
-90.4800643920898,79.701416015625
-85.9639739990234,77.169921875
-81.2334442138672,75.01318359375
-76.6919174194336,73.931640625
-72.6183853149414,74.30078125
-69.1335067749023,75.94921875
-66.3033905029297,78.1904296875
-64.2884750366211,80.179931640625
-63.361701965332,81.4384765625
-63.7248077392578,82.123779296875
-65.2539596557617,82.81689453125
-67.371711730957,83.978271484375
-69.1940231323242,85.494873046875
-69.9587631225586,86.6650390625
-69.5878829956055,86.630859375
-69.0636596679688,84.966552734375
-70.2924041748047,82.06298828125
-75.3837738037109,79.040283203125
-85.6642303466797,77.155029296875
-100.957595825195,76.991455078125
-119.546661376953,77.953369140625
-138.854934692383,78.48974609375
-156.483505249023,76.939697265625
-171.047958374023,72.471923828125
-182.391311645508,65.56201171875
-191.150970458984,57.783935546875
-198.052703857422,51.120361328125
-203.432525634766,47.156005859375
-207.245223999023,46.4970703125
-209.418228149414,48.640869140625
-210.181625366211,52.343017578125
-210.090805053711,56.2548828125
-209.759140014648,59.44775390625
-209.551605224609,61.568603515625
-209.467132568359,62.686279296875
-209.262252807617,63.062255859375
-208.69953918457,63.008056640625
-207.753036499023,62.79345703125
-206.659759521484,62.544921875
-205.80549621582,62.164306640625
-205.516815185547,61.377197265625
-205.91096496582,59.916748046875
-206.897933959961,57.743408203125
-208.297561645508,55.17431640625
-209.93571472168,52.87255859375
-211.63215637207,51.631103515625
-213.113479614258,51.99169921875
-213.970260620117,53.844970703125
-213.747528076172,56.3095703125
-212.141204833984,58.07080078125
-209.199356079102,58.05712890625
-205.381530761719,56.033935546875
-201.42301940918,52.75927734375
-198.034530639648,49.6181640625
-195.611267089844,47.991455078125
-194.120101928711,48.704833984375
-193.227432250977,51.758544921875
-192.554275512695,56.36962890625
-191.892807006836,61.25439453125
-191.272506713867,65.025634765625
-190.861053466797,66.601318359375
-190.765518188477,65.522705078125
-190.85595703125,62.11181640625
-190.749542236328,57.415771484375
-189.999877929688,52.915283203125
-188.404891967773,49.999755859375
-186.214492797852,49.396484375
-184.08984375,50.8193359375
-182.821029663086,53.0751953125
-182.966857910156,54.60107421875
-184.592910766602,54.173828125
-187.218322753906,51.466064453125
-189.98307800293,47.18896484375
-191.958282470703,42.759765625
-192.491134643555,39.660888671875
-191.455917358398,38.817138671875
-189.307678222656,40.262451171875
-186.899688720703,43.2265625
-185.133819580078,46.5244140625
-184.582412719727,49.075439453125
-185.22981262207,50.32177734375
-186.4453125,50.371826171875
-187.220352172852,49.779052734375
-186.599044799805,49.12646484375
-184.11799621582,48.682861328125
-180.048629760742,48.327880859375
-175.312316894531,47.71337890625
-171.118240356445,46.53857421875
-168.491622924805,44.806396484375
-167.8837890625,42.9306640625
-169.011672973633,41.622314453125
-170.993576049805,41.55615234375
-172.754959106445,42.974609375
-173.523376464844,45.45263671875
-173.156295776367,47.9873046875
-172.137832641602,49.3779296875
-171.282623291016,48.7353515625
-171.342330932617,45.88671875
-172.70881652832,41.51953125
-175.310333251953,36.97998046875
-178.675872802734,33.766845703125
-182.105575561523,32.921630859375
-184.900161743164,34.599609375
-186.630447387695,38.055419921875
-187.352935791016,42.0244140625
-187.650054931641,45.23876953125
-188.399230957031,46.8017578125
-190.343551635742,46.342529296875
-193.694381713867,44.0234375
-198.002426147461,40.447509765625
-202.397827148438,36.4453125
-206.066421508789,32.84716796875
-208.677581787109,30.33251953125
-210.508804321289,29.336181640625
-212.222991943359,29.90185546875
-214.485549926758,31.5419921875
-217.652694702148,33.3173828125
-221.656646728516,34.214111328125
-226.077377319336,33.617431640625
-230.331329345703,31.574462890625
-233.886703491211,28.742431640625
-236.432373046875,26.111328125
-237.942947387695,24.646484375
-238.621139526367,24.932861328125
-238.744873046875,26.907958984375
-238.504409790039,29.829345703125
-237.914001464844,32.5244140625
-236.840301513672,33.8212890625
-235.119995117188,32.993896484375
-232.689666748047,30.092041015625
-229.666305541992,26.024169921875
-226.357467651367,22.26318359375
-223.218063354492,20.185791015625
-220.780166625977,20.345703125
-219.548629760742,22.13720703125
-219.854797363281,24.09814453125
-221.710983276367,24.695556640625
-224.770812988281,23.139892578125
-228.41911315918,19.79638671875
-231.913177490234,15.990478515625
-234.483428955078,13.323486328125
-235.410736083984,12.8388671875
-234.191909790039,14.502197265625
-230.784118652344,17.27490234375
-225.777252197266,19.718017578125
-220.316162109375,20.7490234375
-215.749404907227,20.13671875
-213.137359619141,18.519287109375
-212.838241577148,17.024658203125
-214.353256225586,16.69921875
-216.53125,18.003173828125
-218.033584594727,20.627197265625
-217.84065246582,23.7099609375
-215.587921142578,26.32568359375
-211.649078369141,27.936279296875
-206.995712280273,28.514892578125
-202.892791748047,28.328857421875
-200.498458862305,27.644775390625
-200.454681396484,26.619873046875
-202.60368347168,25.413818359375
-205.966613769531,24.328125
-209.042144775391,23.796630859375
-210.339416503906,24.206298828125
-208.944869995117,25.645751953125
-204.897201538086,27.75634765625
-199.231307983398,29.79443359375
-193.646728515625,30.94091796875
-189.869277954102,30.70703125
-188.925201416016,29.199951171875
-190.663375854492,27.135986328125
-193.807037353516,25.606201171875
-196.557830810547,25.706787109375
-197.44758605957,28.1162109375
-195.993927001953,32.7392578125
-192.850387573242,38.568359375
-189.416259765625,43.927978515625
-187.136749267578,47.11474609375
-186.821151733398,47.163330078125
-188.291687011719,44.33935546875
-190.512680053711,40.032958984375
-192.117065429688,36.125732421875
-192.044921875,34.155517578125
-189.976104736328,34.685546875
-186.391143798828,37.107421875
-182.306213378906,39.958740234375
-178.854537963867,41.633544921875
-176.898895263672,41.182373046875
-176.785537719727,38.77978515625
-178.276901245117,35.620361328125
-180.656005859375,33.335693359375
-182.983505249023,33.250732421875
-184.434387207031,35.810791015625
-184.605056762695,40.3681640625
-183.644287109375,45.40625
-182.136581420898,49.155029296875
-180.757232666016,50.327880859375
-179.881423950195,48.6181640625
-179.404495239258,44.71337890625
-178.921615600586,39.893310546875
-178.139923095703,35.48583984375
-177.184875488281,32.431640625
-176.550689697266,31.068359375
-176.732315063477,31.1533203125
-177.825134277344,32.0732421875
-179.384155273438,33.1572265625
-180.640655517578,33.916015625
-180.944427490234,34.06201171875
-180.13899230957,33.3740234375
-178.646286010742,31.580078125
-177.221252441406,28.423583984375
-176.542297363281,23.90771484375
-176.872772216797,18.56982421875
-177.968521118164,13.584228515625
-179.268493652344,10.50390625
-180.230270385742,10.601318359375
-180.584396362305,14.0693359375
-180.352966308594,19.659912109375
-179.689880371094,25.181884765625
-178.718322753906,28.674560546875
-177.501770019531,29.46435546875
-176.119781494141,28.41162109375
-174.746215820312,27.256103515625
-173.638595581055,27.56982421875
-173.039459228516,29.95068359375
-173.082153320312,33.791259765625
-173.758483886719,37.6162109375
-174.950454711914,39.784423828125
-176.48681640625,39.24267578125
-178.216125488281,35.979736328125
-180.091049194336,31.002685546875
-182.227981567383,25.884033203125
-184.870162963867,22.1376953125
-188.203506469727,20.696533203125
-192.085784912109,21.62939453125
-195.869293212891,24.173095703125
-198.505004882812,27.1015625
-198.967147827148,29.29638671875
-196.818496704102,30.244384765625
-192.599243164062,30.16064453125
-187.779586791992,29.728515625
-184.22021484375,29.689453125
-183.377365112305,30.50634765625
-185.648040771484,32.140380859375
-190.18977355957,33.973876953125
-195.291351318359,34.97265625
-199.093383789062,34.1337890625
-200.323013305664,31.016357421875
-198.752349853516,26.02001953125
-195.212417602539,20.25341796875
-191.169082641602,15.098876953125
-188.073745727539,11.705078125
-186.797225952148,10.620361328125
-187.398361206055,11.621337890625
-189.254135131836,13.769775390625
-191.410095214844,15.682373046875
-192.972381591797,16.0009765625
-193.434539794922,13.930419921875
-192.862609863281,9.635498046875
-191.866943359375,4.259765625
-191.351623535156,-0.48779296875
-192.146484375,-3.065673828125
-194.682952880859,-2.822265625
-198.845260620117,-0.327880859375
-204.054443359375,2.924560546875
-209.524063110352,5.349365234375
-214.517395019531,6.1611328125
-218.40185546875,5.8251953125
-220.50456237793,5.7965087890625
-219.998336791992,7.69677734375
-216.062957763672,12.3695068359375
-208.284606933594,19.337646484375
-196.981750488281,26.970947265625
-183.156723022461,33.334228515625
-168.039993286133,37.201416015625
-152.535949707031,38.654052734375
-136.978240966797,38.916748046875
-121.366683959961,39.588623046875
-105.892990112305,41.74658203125
-91.3368682861328,45.390380859375
-78.9912567138672,49.454345703125
-70.1341857910156,52.30810546875
-65.3708953857422,52.46337890625
-64.2726135253906,49.214111328125
-65.4888000488281,42.970458984375
-67.2304992675781,35.1826171875
-67.8558044433594,27.858154296875
-66.3524932861328,22.845458984375
-62.6208648681641,21.17041015625
-57.4890747070312,22.69677734375
-52.39111328125,26.2646484375
-48.7568359375,30.213623046875
-47.3697052001953,33.01171875
-48.0597991943359,33.648681640625
-49.9196624755859,31.68701171875
-51.8953247070312,27.148681640625
-53.3740692138672,20.474365234375
-54.416259765625,12.59033203125
-55.5424652099609,4.86767578125
-57.2769775390625,-1.2293701171875
-59.7665710449219,-4.7369384765625
-62.6754150390625,-5.6673583984375
-65.3592834472656,-5.0130615234375
-67.1627349853516,-4.1939697265625
-67.6593322753906,-4.2830810546875
-66.7232513427734,-5.466552734375
-64.4488677978516,-7.0406494140625
-61.0358734130859,-7.864013671875
-56.7621459960938,-6.947998046875
-52.0567169189453,-3.889892578125
-47.5749664306641,1.002685546875
-44.1505584716797,6.8408203125
-42.5685424804688,12.465087890625
-43.2247924804688,16.81396484375
-45.8168792724609,19.2451171875
-49.2825775146484,19.670654296875
-52.1152038574219,18.46240234375
-52.9883422851562,16.2060546875
-51.4009094238281,13.453369140625
-47.9668121337891,10.567138671875
-44.1649780273438,7.67822265625
-41.6649017333984,4.740966796875
-41.5721740722656,1.662109375
-43.9410095214844,-1.5150146484375
-47.7655181884766,-4.4490966796875
-51.4479827880859,-6.5079345703125
-53.5381317138672,-7.0181884765625
-53.39306640625,-5.672119140625
-51.41748046875,-2.8372802734375
-48.7508697509766,0.4481201171875
-46.5868988037109,2.8580322265625
-45.527587890625,3.3670654296875
-45.3120727539062,1.747314453125
-45.0308837890625,-1.3173828125
-43.6764526367188,-4.556640625
-40.7315368652344,-6.6669921875
-36.4864044189453,-6.754638671875
-31.9268188476562,-4.531982421875
-28.2808685302734,-0.341064453125
-26.4851531982422,4.8896484375
-26.8339538574219,9.765625
-28.9256134033203,12.77490234375
-31.8632965087891,12.843994140625
-34.5805511474609,9.829345703125
-36.1729431152344,4.6201171875
-36.1326141357422,-1.240478515625
-34.4306488037109,-6.1490478515625
-31.4441223144531,-8.9464111328125
-27.7905731201172,-9.174560546875
-24.1441497802734,-7.142333984375
-21.088134765625,-3.7841796875
-19.0029602050781,-0.317138671875
-17.991943359375,2.197998046875
-17.8516387939453,3.190673828125
-18.1220703125,2.69091796875
-18.2308959960938,1.250732421875
-17.6921081542969,-0.255126953125
-16.2738037109375,-0.91259765625
-14.0489807128906,-0.0845947265625
-11.308837890625,2.355224609375
-8.40452575683594,5.962646484375
-5.62089538574219,9.852783203125
-3.15469360351562,12.955322265625
-1.17684936523438,14.339599609375
0.0992431640625,13.529296875
0.437225341796875,10.69775390625
-0.298492431640625,6.63916015625
-1.98890686035156,2.48193359375
-4.2071533203125,-0.7587890625
-6.33232116699219,-2.5841064453125
-7.80235290527344,-3.14501953125
-8.38139343261719,-3.0885009765625
-8.2904052734375,-3.2457275390625
-8.10260009765625,-4.2984619140625
-8.45510864257812,-6.4853515625
-9.7330322265625,-9.44091796875
-11.89111328125,-12.3125
-14.4827423095703,-14.174560546875
-16.8643188476562,-14.5257568359375
-18.4826965332031,-13.5472412109375
-19.1250610351562,-11.98876953125
-19.0147552490234,-10.76953125
-18.7035980224609,-10.5330810546875
-18.8169555664062,-11.3468017578125
-19.7548675537109,-12.6412353515625
-21.4642944335938,-13.426025390625
-23.4033355712891,-12.7291259765625
-24.782958984375,-10.09619140625
-25.0038299560547,-5.9140625
-24.0462036132812,-1.3546142578125
-22.5627288818359,2.075927734375
-21.5894775390625,3.201416015625
-22.0081024169922,1.7548828125
-24.0382385253906,-1.442138671875
-27.0708312988281,-4.83740234375
-29.9636688232422,-6.93994140625
-31.6271209716797,-7.15380859375
-31.5533905029297,-6.1217041015625
-30.0058135986328,-5.324951171875
-27.8240356445312,-6.16259765625
-25.9949951171875,-9.079833984375
-25.1978302001953,-13.2803955078125
-25.5139007568359,-17.1396484375
-26.4065246582031,-19.0313720703125
-26.9921722412109,-18.0791015625
-26.4872894287109,-14.484130859375
-24.6288452148438,-9.32080078125
-21.8467102050781,-4.001708984375
-19.0814208984375,0.267578125
-17.3068389892578,2.772705078125
-16.9857025146484,3.291748046875
-17.7666625976562,1.997802734375
-18.6479339599609,-0.5654296875
-18.5718383789062,-3.508056640625
-17.1063690185547,-5.776611328125
-14.7778778076172,-6.525634765625
-12.8235931396484,-5.47607421875
-12.5117340087891,-3.051025390625
-14.4311370849609,-0.24853515625
-18.137451171875,1.65869140625
-22.3338012695312,1.517822265625
-25.4732513427734,-1.286865234375
-26.4598236083984,-6.502685546875
-25.0771636962891,-12.961669921875
-21.9722442626953,-18.9072265625
-18.2837371826172,-22.6190185546875
-15.1867828369141,-23.082275390625
-13.5456848144531,-20.4036865234375
-13.7423706054688,-15.773193359375
-15.6488952636719,-10.9656982421875
-18.7147369384766,-7.618408203125
-22.1500854492188,-6.61669921875
-25.1614990234375,-7.861083984375
-27.1675109863281,-10.4669189453125
-27.9360961914062,-13.24365234375
-27.5942840576172,-15.1995849609375
-26.5185394287109,-15.9019775390625
-25.1519012451172,-15.571533203125
-23.8241119384766,-14.88134765625
-22.6310577392578,-14.51904296875
-21.4205932617188,-14.753173828125
-19.9079437255859,-15.27783203125
-17.8806762695312,-15.4212646484375
-15.3832244873047,-14.586181640625
-12.769287109375,-12.6573486328125
-10.5806427001953,-10.16162109375
-9.30729675292969,-8.0601806640625
-9.14320373535156,-7.2562255859375
-9.8638916015625,-8.070556640625
-10.9078216552734,-9.9981689453125
-11.6143646240234,-11.907470703125
-11.4890747070312,-12.5911865234375
-10.3813934326172,-11.3856201171875
-8.54879760742188,-8.543701171875
-6.60708618164062,-5.155517578125
-5.34671020507812,-2.596435546875
-5.40969848632812,-1.7431640625
-6.94459533691406,-2.419921875
-9.44903564453125,-3.44580078125
-11.9368133544922,-3.341064453125
-13.3853454589844,-1.27685546875
-13.2164306640625,2.31884765625
-11.5343627929688,5.8427734375
-8.9989013671875,7.294921875
-6.43190002441406,5.35498046875
-4.42027282714844,0.206787109375
-3.12614440917969,-6.368408203125
-2.35671997070312,-11.754638671875
-1.77279663085938,-13.7593994140625
-1.091064453125,-11.68359375
-0.188796997070312,-6.642333984375
0.881362915039062,-0.999267578125
1.94403076171875,2.774169921875
2.80433654785156,3.21630859375
3.36077880859375,0.432861328125
3.67276000976562,-4.12841796875
3.91725158691406,-8.523193359375
4.26518249511719,-11.302734375
4.76123046875,-12.1339111328125
5.27825927734375,-11.7318115234375
5.57135009765625,-11.2076416015625
5.387939453125,-11.2984619140625
4.58193969726562,-11.987548828125
3.16925048828125,-12.671875
1.30825805664062,-12.6767578125
-0.768722534179688,-11.747314453125
-2.8046875,-10.23095703125
-4.53654479980469,-8.86279296875
-5.72401428222656,-8.330810546875
-6.23434448242188,-8.9365234375
-6.15318298339844,-10.568603515625
-5.82765197753906,-12.902099609375
-5.76396179199219,-15.5927734375
-6.39665222167969,-18.34521484375
-7.84541320800781,-20.9127197265625
-9.81538391113281,-23.12255859375
-11.7419586181641,-24.917724609375
-13.1130523681641,-26.3443603515625
-13.7748107910156,-27.4791259765625
-14.0341339111328,-28.34912109375
-14.4957427978516,-28.925537109375
-15.7101440429688,-29.2113037109375
-17.8140411376953,-29.35546875
-20.3812103271484,-29.6861572265625
-22.5926361083984,-30.567626953125
-23.6290740966797,-32.1553955078125
-23.0475158691406,-34.2037353515625
-20.9502258300781,-36.05224609375
-17.9031829833984,-36.8572998046875
-14.6706390380859,-35.9794921875
-11.9004516601562,-33.4010009765625
-9.90408325195312,-29.9168701171875
-8.62944030761719,-26.920654296875
-7.81076049804688,-25.814697265625
-7.18017578125,-27.293701171875
-6.60183715820312,-30.9014892578125
-6.06643676757812,-35.1724853515625
-5.60293579101562,-38.3720703125
-5.21882629394531,-39.4332275390625
-4.9307861328125,-38.506103515625
-4.83238220214844,-36.7625732421875
-5.10847473144531,-35.5938720703125
-5.95175170898438,-35.690185546875
-7.44955444335938,-36.539306640625
-9.53514099121094,-36.6612548828125
-12.0343780517578,-34.5220947265625
-14.7683258056641,-29.5831298828125
-17.6131591796875,-22.7071533203125
-20.4940032958984,-15.375244140625
-23.3468475341797,-8.059814453125
-26.1096954345703,1.146484375
-28.7350158691406,16.62255859375
-31.1856079101562,43.764404296875
-33.3912658691406,86.679931640625
-35.1844024658203,146.16796875
-36.2902526855469,218.96435546875
-36.4357604980469,298.55322265625
-35.578369140625,377.0859375
-34.1105194091797,447.515869140625
-32.8354644775391,505.179931640625
-32.6388092041016,548.47216796875
-34.0010833740234,578.730712890625
-36.640869140625,599.470703125
-39.5273818969727,615.08154296875
-41.3084411621094,629.229736328125
-40.9546813964844,643.5087890625
-38.26904296875,656.976318359375
-33.9745559692383,666.8359375
-29.3427047729492,669.882568359375
-25.5881042480469,663.9716796875
-23.3877105712891,648.859619140625
-22.7545166015625,626.213623046875
-23.2726364135742,598.967041015625
-24.480224609375,570.3681640625
-26.1315231323242,543.036865234375
-28.1772003173828,518.28173828125
-30.5133361816406,495.92333984375
-32.7188568115234,474.67431640625
-34.0422058105469,452.89697265625
-33.7205352783203,429.34228515625
-31.4481201171875,403.54248046875
-27.6709899902344,375.837646484375
-23.5012054443359,347.170654296875
-20.3216857910156,318.768310546875
-19.2935638427734,291.74755859375
-20.9740753173828,266.756103515625
-25.1590423583984,243.842041015625
-30.9884490966797,222.644287109375
-37.2596435546875,202.7568359375
-42.80908203125,184.033203125
-46.8233337402344,166.6318359375
-48.9757537841797,150.82568359375
-49.3871765136719,136.72265625
-48.4508666992188,124.114013671875
-46.6053466796875,112.549072265625
-44.1739959716797,101.5830078125
-41.3564910888672,91.0244140625
-38.3462219238281,81.005859375
-35.4333953857422,71.851806640625
-32.9680938720703,63.8642578125
-31.1835327148438,57.193603515625
-30.0333099365234,51.830322265625
-29.1983642578125,47.6279296875
-28.2724304199219,44.31103515625
-26.9927673339844,41.531982421875
-25.3446655273438,39.0107421875
-23.4779357910156,36.714599609375
-21.5195922851562,34.881591796875
-19.447509765625,33.81640625
-17.1342468261719,33.56103515625
-14.5324859619141,33.697021484375
-11.8605194091797,33.44482421875
-9.62918090820312,32.039794921875
-8.45701599121094,29.1689453125
-8.78082275390625,25.200439453125
-10.6342163085938,21.076171875
-13.6360015869141,17.94775390625
-17.1793212890625,16.75732421875
-20.6854095458984,17.937255859375
-23.7622528076172,21.255126953125
-26.1733551025391,25.8232421875
-27.6761322021484,30.3037109375
-27.9036102294922,33.348388671875
-26.4564361572266,34.129638671875
-23.2026824951172,32.686279296875
-18.5652008056641,29.863037109375
-13.5484771728516,26.8369140625
-9.40225219726562,24.46630859375
-7.08268737792969,22.826904296875
-6.82449340820312,21.2119140625
-8.07403564453125,18.6181640625
-9.81158447265625,14.435302734375
-11.0743255615234,8.891845703125
-11.3749694824219,2.93701171875
-10.8034057617188,-2.34033203125
-9.79898071289062,-6.282470703125
-8.79345703125,-8.8048095703125
-7.96722412109375,-10.132080078125
-7.24566650390625,-10.49853515625
-6.48503112792969,-10.0924072265625
-5.67672729492188,-9.21142578125
-5.01673889160156,-8.3701171875
-4.7969970703125,-8.20751953125
-5.21636962890625,-9.22412109375
-6.24557495117188,-11.468505859375
-7.63249206542969,-14.3544921875
-9.01985168457031,-16.768798828125
-10.0882568359375,-17.5244140625
-10.6360473632812,-15.965087890625
-10.5836639404297,-12.361572265625
-9.97247314453125,-7.84375
-9.00270080566406,-3.907958984375
-8.08274841308594,-1.828857421875
-7.78950500488281,-2.23681640625
-8.68838500976562,-4.977294921875
-11.0619049072266,-9.22216796875
-14.6868133544922,-13.77197265625
-18.8180999755859,-17.420166015625
-22.4246215820312,-19.253173828125
-24.5647125244141,-18.8271484375
-24.6905670166016,-16.28857421875
-22.7548980712891,-12.41796875
-19.1294097900391,-8.48291015625
-14.4400787353516,-5.75634765625
-9.42485046386719,-4.887451171875
-4.8310546875,-5.506591796875
-1.3199462890625,-6.3779296875
0.666046142578125,-6.042724609375
1.04640197753906,-3.649658203125
0.173004150390625,0.42041015625
-1.26925659179688,4.486572265625
-2.52928161621094,6.202392578125
-3.08198547363281,3.71484375
-2.79817199707031,-3.248291015625
-1.92129516601562,-12.984619140625
-0.890716552734375,-22.430419921875
-0.115875244140625,-28.522216796875
0.195388793945312,-29.571533203125
0.0853118896484375,-25.916015625
-0.244064331054688,-19.54345703125
-0.606216430664062,-12.996337890625
-0.9932861328125,-8.23486328125
-1.60487365722656,-6.050048828125
-2.71455383300781,-6.208984375
-4.45921325683594,-8.00732421875
-6.67808532714844,-10.763916015625
-8.88224792480469,-13.98046875
-10.3669738769531,-17.224609375
-10.4260864257812,-20.029541015625
-8.6068115234375,-21.983642578125
-4.92631530761719,-22.910888671875
0.030670166015625,-22.924072265625
5.18113708496094,-22.298095703125
9.16415405273438,-21.317626953125
10.6825866699219,-20.240966796875
8.89126586914062,-19.3408203125
3.720703125,-18.892822265625
-4.03312683105469,-19.062255859375
-12.9345855712891,-19.79248046875
-21.3494415283203,-20.77099609375
-27.8903961181641,-21.50732421875
-31.6949462890625,-21.49560546875
-32.5060424804688,-20.439453125
-30.6210632324219,-18.470947265625
-26.7967681884766,-16.2138671875
-22.1223754882812,-14.55810546875
-17.832275390625,-14.204833984375
-15.0418243408203,-15.240234375
-14.4320220947266,-17
-15.9869995117188,-18.39013671875
-18.9280853271484,-18.485107421875
-21.9506683349609,-17.081298828125
-23.72021484375,-14.85986328125
-23.4125061035156,-13.037353515625
-21.0391387939453,-12.687255859375
-17.3892974853516,-14.133056640625
-13.630126953125,-16.726806640625
-10.7692413330078,-19.138427734375
-9.25384521484375,-19.959716796875
-8.89268493652344,-18.349609375
-9.09869384765625,-14.482177734375
-9.27674865722656,-9.60498046875
-9.13070678710938,-5.652099609375
-8.74874877929688,-4.4873046875
-8.47354125976562,-7.078125
-8.65953063964844,-13.004638671875
-9.45492553710938,-20.571044921875
-10.6983337402344,-27.486083984375
-11.9706726074219,-31.772705078125
-12.7693786621094,-32.4462890625
-12.72412109375,-29.710205078125
-11.7546081542969,-24.6767578125
-10.0772857666016,-18.86572265625
-8.06654357910156,-13.74560546875
-6.06657409667969,-10.426513671875
-4.3013916015625,-9.48974609375
-2.927490234375,-10.909423828125
-2.14973449707031,-14.06494140625
-2.25885009765625,-17.913330078125
-3.52285766601562,-21.35302734375
-5.98223876953125,-23.65234375
-9.30276489257812,-24.713134765625
-12.8107757568359,-25.017333984375
-15.7323913574219,-25.280517578125
-17.5270080566406,-26.010009765625
-18.1419677734375,-27.20166015625
-18.0369873046875,-28.35009765625
-17.9579620361328,-28.769287109375
-18.5873718261719,-28.071533203125
-20.2520446777344,-26.49560546875
-22.8171539306641,-24.84228515625
-25.7720794677734,-24.01318359375
-28.4359893798828,-24.4873046875
-30.1978912353516,-26.10205078125
-30.7147064208984,-28.238525390625
-30.0131530761719,-30.238037109375
-28.4585571289062,-31.7567138671875
-26.6221923828125,-32.8472900390625
-25.1016540527344,-33.7529296875
-24.3458862304688,-34.5667724609375
-24.4991607666016,-35.0206298828125
-25.3064270019531,-34.56982421875
-26.142822265625,-32.7281494140625
-26.2186889648438,-29.3961181640625
-24.9013214111328,-24.984130859375
-22.0094146728516,-20.292236328125
-17.9268188476562,-16.31689453125
-13.4683685302734,-14.059814453125
-9.56202697753906,-14.325439453125
-6.8927001953125,-17.428955078125
-5.68083190917969,-22.947509765625
-5.6986083984375,-29.6572265625
-6.48794555664062,-35.779296875
-7.6170654296875,-39.551025390625
-8.82203674316406,-39.940185546875
-9.9896240234375,-37.203369140625
-11.0370330810547,-32.874267578125
-11.7880401611328,-29.076904296875
-11.9248504638672,-27.48046875
-11.0838012695312,-28.498046875
-9.07099914550781,-31.166015625
-6.06932067871094,-33.7314453125
-2.70106506347656,-34.59423828125
0.119110107421875,-33.100830078125
1.50141906738281,-29.836669921875
0.963180541992188,-26.2705078125
-1.31301879882812,-23.956787109375
-4.51528930664062,-23.724609375
-7.55162048339844,-25.314208984375
-9.54750061035156,-27.6171875
-10.2152557373047,-29.33251953125
-9.89678955078125,-29.63916015625
-9.25984191894531,-28.546142578125
-8.84709167480469,-26.810302734375
-8.77720642089844,-25.499755859375
-8.78038024902344,-25.431640625
-8.49952697753906,-26.72998046875
-7.83016967773438,-28.714111328125
-7.07075500488281,-30.201171875
-6.78279113769531,-30.07470703125
-7.44192504882812,-27.796630859375
-9.0731201171875,-23.603271484375
-11.1203155517578,-18.334716796875
-12.6610107421875,-13.04931640625
-12.8788604736328,-8.614013671875
-11.5229644775391,-5.44775390625
-9.07127380371094,-3.539794921875
-6.50045776367188,-2.72607421875
-4.79502868652344,-2.99951171875
-4.4801025390625,-4.550537109375
-5.41593933105469,-7.44873046875
-6.94603729248047,-11.2412109375
-8.28911590576172,-14.900390625
-8.93698883056641,-17.253662109375
-8.85317230224609,-17.63916015625
-8.40928649902344,-16.331787109375
-8.18006896972656,-14.48974609375
-8.72259521484375,-13.650634765625
-10.427490234375,-15.0263671875
-13.4537200927734,-18.931640625
-17.7195129394531,-24.629150390625
-22.9114227294922,-30.651123046875
-28.5010223388672,-35.42041015625
-33.7872467041016,-37.85693359375
-38.0030975341797,-37.728515625
-40.4947662353516,-35.629150390625
-40.9459838867188,-32.634521484375
-39.5424499511719,-29.78466796875
-36.9774169921875,-27.65185546875
-34.2434997558594,-26.24755859375
-32.2722625732422,-25.3388671875
-31.5846557617188,-24.8916015625
-32.1165313720703,-25.239990234375
-33.3209228515625,-26.802734375
-34.4850616455078,-29.56982421875
-35.0921859741211,-32.8193359375
-35.0429611206055,-35.30615234375
-34.6636962890625,-35.833251953125
-34.5239715576172,-33.859619140625
-35.1474456787109,-29.812744140625
-36.7254028320312,-24.972900390625
-38.9660491943359,-21.02197265625
-41.1803894042969,-19.4140625
-42.5993957519531,-20.796630859375
-42.7653656005859,-24.67041015625
-41.7777557373047,-29.459716796875
-40.2395935058594,-33.035888671875
-38.924919128418,-33.58642578125
-38.3629379272461,-30.474609375
-38.5802307128906,-24.642578125
-39.1505432128906,-18.244140625
-39.5295715332031,-13.630126953125
-39.4669189453125,-12.19873046875
-39.24072265625,-13.768798828125
-39.5465393066406,-16.794677734375
-41.0991516113281,-19.247802734375
-44.1709442138672,-19.651611328125
-48.32958984375,-17.77001953125
-52.5132904052734,-14.682373046875
-55.4335174560547,-12.22119140625
-56.1222381591797,-12.007080078125
-54.3634948730469,-14.54443359375
-50.7896881103516,-18.901611328125
-46.5871810913086,-23.202880859375
-42.9572219848633,-25.662841796875
-40.6228408813477,-25.544677734375
-39.6108093261719,-23.544677734375
-39.3824005126953,-21.435546875
-39.1968688964844,-21.15185546875
-38.5184478759766,-23.745849609375
-37.2669448852539,-28.7587890625
-35.8197860717773,-34.406005859375
-34.7932281494141,-38.49755859375
-34.720832824707,-39.54541015625
-35.7802200317383,-37.40625
-37.7019805908203,-33.20361328125
-39.8984680175781,-28.683837890625
-41.7395172119141,-25.394775390625
-42.8040008544922,-24.065673828125
-42.9842071533203,-24.43603515625
-42.431884765625,-25.575927734375
-41.4392242431641,-26.458740234375
-40.3478698730469,-26.463623046875
-39.5175933837891,-25.537841796875
-39.3138732910156,-24.026123046875
-40.0481719970703,-22.354736328125
-41.8536529541016,-20.787353515625
-44.5679779052734,-19.3251953125
-47.7323303222656,-17.791015625
-50.7581634521484,-16.078857421875
-53.1909027099609,-14.402587890625
-54.8965148925781,-13.331787109375
-56.0428924560547,-13.517578125
-56.9053344726562,-15.268798828125
-57.6594085693359,-18.290283203125
-58.3088989257812,-21.74560546875
-58.7613220214844,-24.6064453125
-58.943603515625,-26.07666015625
-58.8417053222656,-25.91650390625
-58.4363708496094,-24.517578125
-57.6138458251953,-22.689697265625
-56.1761169433594,-21.272216796875
-54.0005340576172,-20.765625
-51.2580718994141,-21.185302734375
-48.5206756591797,-22.15625
-46.6420135498047,-23.1630859375
-46.4351806640625,-23.8046875
-48.2984924316406,-23.948486328125
-52.0019378662109,-23.740234375
-56.7611083984375,-23.4462890625
-61.5638885498047,-23.237060546875
-65.5704345703125,-23.088623046875
-68.3782196044922,-22.896484375
-70.0423126220703,-22.69580078125
-70.8826293945312,-22.7392578125
-71.2281188964844,-23.31201171875
-71.2536163330078,-24.413818359375
-70.98388671875,-25.607421875
-70.4181823730469,-26.16748046875
-69.6436920166016,-25.4521484375
-68.8390502929688,-23.284423828125
-68.1505432128906,-20.205322265625
-67.5605163574219,-17.447998046875
-66.8919067382812,-16.524658203125
-65.9972534179688,-18.500244140625
-65.0050506591797,-23.341064453125
-64.3711242675781,-29.763671875
-64.6030578613281,-35.706787109375
-65.8136291503906,-39.1708984375
-67.4502410888672,-39.026123046875
-68.4652862548828,-35.496826171875
-67.8772277832031,-30.13671875
-65.3990325927734,-25.197021484375
-61.7170562744141,-22.603271484375
-58.2111663818359,-23.0517578125
-56.2460327148438,-25.78564453125
-56.4632720947266,-29.158203125
-58.500244140625,-31.590087890625
-61.270263671875,-32.3681640625
-63.5807037353516,-31.9189453125
-64.7039184570312,-31.481201171875
-64.5891571044922,-32.326171875
-63.6793975830078,-34.890625
-62.5305023193359,-38.35205078125
-61.5052185058594,-40.9716796875
-60.6955718994141,-41.060546875
-60.0356597900391,-37.996826171875
-59.4825134277344,-32.677978515625
-59.0934906005859,-27.16845703125
-58.9403228759766,-23.7236328125
-58.9422302246094,-23.729248046875
-58.7952423095703,-27.0703125
-58.1004638671875,-32.21826171875
-56.6120452880859,-36.966796875
-54.4125366210938,-39.43115234375
-51.8896179199219,-38.840576171875
-49.5392761230469,-35.76416015625
-47.7456359863281,-31.739501953125
-46.6670684814453,-28.556640625
-46.258056640625,-27.566650390625
-46.3719940185547,-29.251220703125
-46.8429260253906,-33.173828125
-47.4909973144531,-38.286865234375
-48.1139678955078,-43.431884765625
-48.5323486328125,-47.741943359375
-48.6920928955078,-50.741455078125
-48.7256927490234,-52.203125
-48.8787994384766,-52.038818359375
-49.3245849609375,-50.370361328125
-49.9833679199219,-47.67431640625
-50.4830932617188,-44.796630859375
-50.2989807128906,-42.712158203125
-49.0065002441406,-42.124267578125
-46.5084381103516,-43.09521484375
-43.1288146972656,-44.93408203125
-39.5412292480469,-46.4833984375
-36.5913543701172,-46.728271484375
-35.0528793334961,-45.3603515625
-35.3534469604492,-42.936279296875
-37.3513488769531,-40.52880859375
-40.3135375976562,-39.138916015625
-43.1713485717773,-39.231689453125
-44.9487762451172,-40.61083984375
-45.1307220458984,-42.610107421875
-43.7799377441406,-44.460693359375
-41.3777542114258,-45.62109375
-38.5468139648438,-45.9208984375
-35.8367538452148,-45.467529296875
-33.664794921875,-44.46875
-32.3567276000977,-43.1494140625
-32.1522521972656,-41.829345703125
-33.0840682983398,-40.972900390625
-34.7911987304688,-41.037109375
-36.4664306640625,-42.1591796875
-37.0743713378906,-44.001953125
-35.8006591796875,-45.939697265625
-32.4814758300781,-47.43701171875
-27.7481689453125,-48.302001953125
-22.7946319580078,-48.678466796875
-18.8888397216797,-48.852783203125
-16.8543548583984,-49.011962890625
-16.7477569580078,-49.087646484375
-17.8733978271484,-48.790771484375
-19.1333541870117,-47.84228515625
-19.5481872558594,-46.2646484375
-18.6970062255859,-44.493896484375
-16.8788223266602,-43.183837890625
-14.9391937255859,-42.822265625
-13.8509521484375,-43.404541015625
-14.2578353881836,-44.3974609375
-16.1961898803711,-45.021484375
-19.1028594970703,-44.697998046875
-22.077033996582,-43.427734375
-24.2538909912109,-41.87646484375
-25.1315612792969,-41.05615234375
-24.7019500732422,-41.720703125
-23.3529434204102,-43.8779296875
-21.6140975952148,-46.803955078125
-19.8959732055664,-49.55859375
-18.3444213867188,-51.6025390625
-16.8658599853516,-53.04638671875
-15.2917556762695,-54.41015625
-13.5603408813477,-56.0712890625
-11.8007125854492,-57.84716796875
-10.2942047119141,-58.9931640625
-9.35237121582031,-58.662841796875
-9.17365264892578,-56.4951171875
-9.75034332275391,-52.87841796875
-10.8995971679688,-48.747314453125
-12.4450149536133,-45.09375
-14.4502639770508,-42.561767578125
-17.3191070556641,-41.335693359375
-21.6254196166992,-41.261474609375
-27.702507019043,-42.027099609375
-35.2314376831055,-43.2890625
-43.1204528808594,-44.69677734375
-49.8251800537109,-45.91064453125
-54.001708984375,-46.666748046875
-55.1705017089844,-46.87109375
-54.0249786376953,-46.633544921875
-52.1843719482422,-46.181396484375
-51.4681243896484,-45.695556640625
-53.0460510253906,-45.18994140625
-56.9064178466797,-44.52734375
-61.9149017333984,-43.60009765625
-66.3947601318359,-42.547119140625
-68.9231719970703,-41.806884765625
-68.9395141601562,-41.91015625
-66.9052734375,-43.12255859375
-63.9673767089844,-45.172607421875
-61.3661651611328,-47.296142578125
-59.9165802001953,-48.595458984375
-59.8199920654297,-48.516845703125
-60.8191680908203,-47.15771484375
-62.4979858398438,-45.193603515625
-64.4871978759766,-43.4462890625
-66.4787139892578,-42.38916015625
-68.1445617675781,-41.91259765625
-69.1304321289062,-41.496337890625
-69.1830291748047,-40.6044921875
-68.3142700195312,-39.03955078125
-66.8589630126953,-37.050048828125
-65.3738403320312,-35.187744140625
-64.4197235107422,-34.001220703125
-64.3236846923828,-33.7294921875
-65.0162353515625,-34.17333984375
-66.0223388671875,-34.79541015625
-66.6339416503906,-34.99609375
-66.2292022705078,-34.438232421875
-64.6356201171875,-33.26318359375
-62.3464965820312,-32.08154296875
-60.4197082519531,-31.709228515625
-60.0320281982422,-32.765625
-61.8655090332031,-35.356689453125
-65.6570587158203,-38.987060546875
-70.1965789794922,-42.75537109375
-73.8602600097656,-45.724853515625
-75.4323883056641,-47.2919921875
-74.7111358642578,-47.36767578125
-72.4611968994141,-46.328125
-69.7172088623047,-44.84375
-66.9555511474609,-43.715576171875
-63.7257690429688,-43.7880859375
-58.9513244628906,-45.89404296875
-51.6302947998047,-50.752685546875
-41.4937438964844,-58.751953125
-29.295524597168,-69.681396484375
-16.649787902832,-82.569580078125
-5.5474853515625,-95.822021484375
2.22478485107422,-107.67236328125
5.57807922363281,-116.739990234375
4.43609619140625,-122.45263671875
-0.170562744140625,-125.13525390625
-6.31322479248047,-125.781005859375
-11.7246475219727,-125.6044921875
-14.5695343017578,-125.605224609375
-14.0920944213867,-126.305419921875
-10.8071899414062,-127.734619140625
-6.14833068847656,-129.5732421875
-1.80973815917969,-131.35595703125
0.868423461914062,-132.665771484375
1.23873138427734,-133.262451171875
-0.598075866699219,-133.104736328125
-3.92683410644531,-132.326171875
-7.66046905517578,-131.252197265625
-10.6675872802734,-130.4228515625
-12.113639831543,-130.436279296875
-11.699836730957,-131.591552734375
-9.70960998535156,-133.5712890625
-6.84918212890625,-135.473388671875
-3.97232055664062,-136.234619140625
-1.78888702392578,-135.159423828125
-0.645660400390625,-132.277099609375
-0.44708251953125,-128.364990234375
-0.755790710449219,-124.661865234375
-1.03004455566406,-122.34326171875
-0.890228271484375,-121.990966796875
-0.26507568359375,-123.35888671875
0.635673522949219,-125.549560546875
1.47251129150391,-127.484130859375
1.94181060791016,-128.3642578125
1.88217926025391,-127.946044921875
1.28715515136719,-126.567626953125
0.230148315429688,-124.955322265625
-1.23299407958984,-123.874267578125
-3.07841491699219,-123.7705078125
-5.21014404296875,-124.6142578125
-7.32457733154297,-126.006103515625
-8.89429473876953,-127.456787109375
-9.33246612548828,-128.65625
-8.25711822509766,-129.59423828125
-5.68365478515625,-130.500244140625
-2.03279876708984,-131.668212890625
2.04759216308594,-133.2236328125
5.95841217041016,-134.948974609375
9.3878173828125,-136.3056640625
12.3923187255859,-136.673583984375
15.2468109130859,-135.697021484375
18.1437225341797,-133.482421875
20.9451675415039,-130.563232421875
23.1687049865723,-127.715576171875
24.2067527770996,-125.706787109375
23.6450958251953,-125.03076171875
21.5335426330566,-125.660888671875
18.5105819702148,-126.954345703125
15.6811408996582,-127.8115234375
14.2134056091309,-127.08251953125
14.7664566040039,-124.057373046875
17.0451812744141,-118.808349609375
19.781005859375,-112.23828125
21.2115936279297,-105.7998046875
19.8467254638672,-100.978515625
15.1774215698242,-98.734130859375
7.99262237548828,-99.169189453125
0.132614135742188,-101.576416015625
-6.26129913330078,-104.79296875
-9.68009948730469,-107.6357421875
-9.90044403076172,-109.235107421875
-8.02604675292969,-109.208984375
-5.89003753662109,-107.66259765625
-5.11642456054688,-105.060546875
-6.29231262207031,-101.994873046875
-8.67685699462891,-98.9736328125
-10.6007385253906,-96.310546875
-10.3413543701172,-94.148193359375
-6.99214172363281,-92.53759765625
-0.870201110839844,-91.49365234375
6.69220733642578,-91.025390625
13.9743347167969,-91.162109375
19.5398178100586,-91.953125
22.6595687866211,-93.37841796875
23.3859024047852,-95.246826171875
22.3694000244141,-97.217529296875
20.5506439208984,-98.994873046875
18.8513031005859,-100.49365234375
17.9342803955078,-101.792236328125
18.0796432495117,-102.90625
19.1684646606445,-103.63232421875
20.7483749389648,-103.66162109375
22.1625823974609,-102.857421875
22.7296600341797,-101.470947265625
21.9577255249023,-100.09716796875
19.7348785400391,-99.378173828125
16.4188461303711,-99.64013671875
12.7599487304688,-100.6904296875
9.63860321044922,-101.9296875
7.70706176757812,-102.68408203125
7.11595916748047,-102.52197265625
7.49320220947266,-101.324951171875
8.18129730224609,-99.153564453125
8.58664703369141,-96.115478515625
8.44351959228516,-92.40625
7.88676452636719,-88.468994140625
7.33316040039062,-85.0615234375
7.25887298583984,-83.07177734375
7.97843933105469,-83.12451171875
9.54717254638672,-85.20263671875
11.8079452514648,-88.535888671875
14.5312347412109,-91.870849609375
17.5354690551758,-94.0107421875
20.7268218994141,-94.376220703125
24.0496063232422,-93.289794921875
27.4041290283203,-91.80224609375
30.6222076416016,-91.1123046875
33.5537071228027,-91.906982421875
36.2103843688965,-94.010986328125
38.8284950256348,-96.534423828125
41.7286033630371,-98.39111328125
45.0422210693359,-98.86474609375
48.4894943237305,-97.92919921875
51.4050636291504,-96.1611328125
53.0432662963867,-94.353271484375
53.0194129943848,-93.0908203125
51.6165657043457,-92.53466796875
49.7425651550293,-92.465576171875
48.5355644226074,-92.476806640625
48.8303489685059,-92.17138671875
50.785831451416,-91.301513671875
53.855712890625,-89.8212890625
57.0986022949219,-87.865234375
59.6594047546387,-85.6630859375
61.1911277770996,-83.422607421875
61.9979782104492,-81.239501953125
62.8328628540039,-79.102294921875
64.4622459411621,-76.981689453125
67.2732048034668,-74.9267578125
71.1269493103027,-73.094970703125
75.4644775390625,-71.723388671875
79.5340232849121,-71.050048828125
82.6180114746094,-71.210693359375
84.2205581665039,-72.16650390625
84.1982650756836,-73.708251953125
82.7958831787109,-75.532470703125
80.5591869354248,-77.318115234375
78.1544399261475,-78.74951171875
76.1568183898926,-79.528564453125
74.8691444396973,-79.449951171875
74.2295055389404,-78.539794921875
73.8660335540771,-77.1181640625
73.3008041381836,-75.673095703125
72.1959838867188,-74.6416015625
70.4931983947754,-74.24462890625
68.4058036804199,-74.491455078125
66.3381690979004,-75.30419921875
64.7970085144043,-76.64453125
64.2693920135498,-78.497802734375
65.0282573699951,-80.6943359375
66.9597015380859,-82.671875
69.5553798675537,-83.45751953125
72.1666355133057,-82.013427734375
74.4042358398438,-77.849609375
76.4301071166992,-71.52587890625
78.8987083435059,-64.671630859375
82.5302448272705,-59.37841796875
87.5695247650146,-57.23779296875
93.4709854125977,-58.550048828125
99.0214824676514,-62.138916015625
102.84681892395,-65.919677734375
104.008429527283,-67.934814453125
102.362190246582,-67.345947265625
98.5072898864746,-64.830322265625
93.4350891113281,-62.116455078125
88.1437759399414,-60.909912109375
83.4083995819092,-61.815185546875
79.7097682952881,-63.955078125
77.2584133148193,-65.5810546875
76.0680541992188,-65.314453125
76.0675582885742,-63.1376953125
77.1957855224609,-60.402587890625
79.3906478881836,-58.830078125
82.4742755889893,-59.24169921875
86.0391311645508,-60.954833984375
89.4599227905273,-62.2802734375
92.0808925628662,-61.74609375
93.5053720474243,-59.148193359375
93.8201389312744,-55.67236328125
93.5944271087646,-53.02783203125
93.6032600402832,-52.280517578125
94.4107265472412,-53.257080078125
96.0374050140381,-54.866943359375
97.9053554534912,-55.934814453125
99.0980567932129,-55.850830078125
98.8124580383301,-54.629150390625
96.781364440918,-52.52978515625
93.479793548584,-49.670654296875
90.000316619873,-45.978759765625
87.6303863525391,-41.4677734375
87.2954063415527,-36.589599609375
89.1317977905273,-32.332275390625
92.4229850769043,-29.91552734375
95.9295654296875,-30.23583984375
98.4469699859619,-33.4248046875
99.2993183135986,-38.7568359375
98.5475215911865,-44.906982421875
96.8555717468262,-50.3701171875
95.0815277099609,-53.927978515625
93.7817077636719,-55.04296875
92.8680076599121,-54.031005859375
91.6362495422363,-51.864501953125
89.1901359558105,-49.65966796875
85.0207748413086,-48.131103515625
79.3801918029785,-47.3525390625
73.2240715026855,-46.946044921875
67.780345916748,-46.501953125
63.9949913024902,-45.95947265625
62.151725769043,-45.721923828125
61.8403587341309,-46.458251953125
62.2658424377441,-48.652099609375
62.6952705383301,-52.159912109375
62.7796363830566,-56.094970703125
62.5779151916504,-59.211669921875
62.3283576965332,-60.571533203125
62.1606101989746,-60.036376953125
61.9375762939453,-58.275390625
61.2923431396484,-56.34326171875
59.8400001525879,-55.110595703125
57.4692878723145,-54.868896484375
54.5399742126465,-55.3359375
51.8231353759766,-56.044921875
50.1529998779297,-56.838134765625
50.0047454833984,-58.074462890625
51.2799987792969,-60.3330078125
53.4098587036133,-63.775390625
55.5990676879883,-67.6220703125
56.9792633056641,-70.179931640625
56.6443176269531,-69.4697265625
53.7593383789062,-64.130126953125
47.885383605957,-54.044921875
39.3862991333008,-40.386962890625
29.5955200195312,-25.101806640625
20.4909591674805,-10.14111328125
13.9251556396484,3.193359375
10.7719879150391,14.486572265625
10.4984817504883,23.95654296875
11.4841995239258,31.9150390625
11.9316329956055,38.363037109375
10.822151184082,42.96484375
8.33283996582031,45.321533203125
5.51344299316406,45.27783203125
3.5003662109375,43.05322265625
2.79767608642578,39.207275390625
3.02791595458984,34.496826171875
3.23237609863281,29.701416015625
2.49404907226562,25.435791015625
0.524627685546875,21.9609375
-2.08081817626953,19.094970703125
-4.0428466796875,16.33349609375
-3.96279907226562,13.214111328125
-0.990707397460938,9.774169921875
4.72198486328125,6.76220703125
12.0110931396484,5.351806640625
19.1458129882812,6.41796875
24.5083160400391,9.799560546875
27.1841278076172,14.059814453125
27.2029876708984,16.994140625
25.3642654418945,16.64111328125
22.7803192138672,12.256591796875
20.3895034790039,4.720947265625
18.6821823120117,-3.788818359375
17.7152481079102,-10.679443359375
17.3229446411133,-13.97900390625
17.3436431884766,-13.158447265625
17.7335052490234,-9.413818359375
18.5393371582031,-5.203125
19.7790298461914,-3.1591796875
21.3193817138672,-4.82568359375
22.8240127563477,-9.869140625
23.8013000488281,-16.2119140625
23.7442321777344,-21.06494140625
22.3145446777344,-22.323974609375
19.4765014648438,-19.575927734375
15.5070953369141,-14.2265625
10.893928527832,-8.7275390625
6.21491241455078,-5.395751953125
2.05979919433594,-5.4453125
-1.03927612304688,-8.65771484375
-2.70812225341797,-13.68701171875
-2.878173828125,-18.7353515625
-1.90982055664062,-22.24365234375
-0.553176879882812,-23.38720703125
0.335235595703125,-22.224609375
0.218147277832031,-19.49560546875
-0.825088500976562,-16.19970703125
-2.15583038330078,-13.22412109375
-2.97344970703125,-11.175537109375
-2.80726623535156,-10.357421875
-1.79230499267578,-10.7373046875
-0.572280883789062,-11.90869140625
0.0743255615234375,-13.155029296875
-0.342430114746094,-13.691650390625
-1.77817535400391,-12.993408203125
-3.67377471923828,-11.01416015625
-5.21016693115234,-8.16552734375
-5.68130493164062,-5.074462890625
-4.81068420410156,-2.2958984375
-2.85254669189453,-0.167236328125
-0.421112060546875,1.123291015625
1.82772064208984,1.394287109375
3.45153045654297,0.464111328125
4.23712921142578,-1.631103515625
4.04361724853516,-4.384521484375
2.68145751953125,-6.83154296875
0.0350341796875,-7.979248046875
-3.62532043457031,-7.41259765625
-7.41988372802734,-5.597412109375
-10.0263900756836,-3.599609375
-10.2738571166992,-2.389892578125
-7.83222198486328,-2.213623046875
-3.51044464111328,-2.396728515625
1.08917236328125,-1.696044921875
4.37123870849609,1.02978515625
5.50627899169922,6.18017578125
4.72168731689453,13.166748046875
3.02904510498047,20.681640625
1.635009765625,27.275390625
1.39337921142578,31.8935546875
2.51673126220703,34.134765625
4.5892333984375,34.232666015625
6.80335998535156,32.884033203125
8.32211303710938,31.005615234375
8.61862945556641,29.47607421875
7.65969085693359,28.96240234375
5.86219024658203,29.876220703125
3.86603546142578,32.372314453125
2.22953033447266,36.272216796875
1.21527862548828,40.975830078125
0.789520263671875,45.509521484375
0.829292297363281,48.823974609375
1.32770538330078,50.213134765625
2.40323638916016,49.617919921875
4.10340881347656,47.64599609375
6.19023132324219,45.340576171875
8.12660980224609,43.801025390625
9.31129455566406,43.7998046875
9.4339599609375,45.542236328125
8.72993469238281,48.696533203125
7.95384216308594,52.632568359375
8.04509735107422,56.703369140625
9.64551544189453,60.4169921875
12.7285346984863,63.469482421875
16.576602935791,65.691162109375
20.1275825500488,66.99560546875
22.4952545166016,67.375244140625
23.3798980712891,66.953125
23.1589012145996,66.038818359375
22.6532287597656,65.10791015625
22.6976852416992,64.666748046875
23.7102355957031,65.0361328125
25.4515914916992,66.203125
27.1024360656738,67.83642578125
27.6482353210449,69.466796875
26.3886756896973,70.68408203125
23.3175201416016,71.266845703125
19.1827735900879,71.1845703125
15.1942443847656,70.514892578125
12.515266418457,69.361328125
11.7789688110352,67.8544921875
12.8563995361328,66.245849609375
14.9682846069336,65.0107421875
17.0667114257812,64.835693359375
18.3069686889648,66.403076171875
18.4215545654297,69.998291015625
17.8459091186523,75.1572265625
17.5270385742188,80.632568359375
18.4852066040039,84.8125
21.3250045776367,86.394775390625
25.8972396850586,84.953857421875
31.2658767700195,81.080810546875
36.000171661377,76.072265625
38.6937294006348,71.38720703125
38.4782371520996,68.180908203125
35.3061294555664,67.062744140625
29.8921356201172,68.051513671875
23.3818778991699,70.620849609375
16.9302635192871,73.820068359375
11.371955871582,76.534423828125
7.10073089599609,77.90234375
4.14468383789062,77.7080078125
2.34522247314453,76.4990234375
1.50013732910156,75.281982421875
1.40024185180664,74.940673828125
1.78862762451172,75.7587890625
2.34709167480469,77.349853515625
2.76030731201172,78.963623046875
2.84310913085938,79.916015625
2.64673614501953,79.8583984375
2.48857879638672,78.8486328125
2.86266326904297,77.284912109375
4.23123168945312,75.76416015625
6.75470733642578,74.846923828125
10.0995712280273,74.7734375
13.4591331481934,75.27978515625
15.8245697021484,75.6806640625
16.4078559875488,75.283447265625
15.0461921691895,73.919189453125
12.3828353881836,72.22607421875
9.68306732177734,71.43115234375
8.31968688964844,72.68505859375
9.15679931640625,76.2880859375
12.1447982788086,81.26953125
16.3402366638184,85.642822265625
20.3107604980469,87.342041015625
22.7237548828125,85.338134765625
22.8635025024414,80.303955078125
20.9004974365234,74.4228515625
17.8185081481934,70.394287109375
15.0334930419922,70.1025390625
13.8389587402344,73.61962890625
14.911262512207,79.111572265625
18.079719543457,83.788818359375
22.4530830383301,85.410888671875
26.8089790344238,83.462646484375
30.0710792541504,79.32958984375
31.680305480957,75.356201171875
31.7344741821289,73.43408203125
30.8753929138184,73.984375
29.9902992248535,75.916748046875
29.8645629882812,77.483642578125
30.9270324707031,77.40478515625
33.1628723144531,75.549560546875
36.185432434082,72.861572265625
39.3901863098145,70.716552734375
42.1194190979004,70.18310546875
43.791431427002,71.5771484375
43.9977836608887,74.422607421875
42.5907974243164,77.74560546875
39.7667961120605,80.50439453125
36.0895805358887,82.010498046875
32.3815612792969,82.151611328125
29.453971862793,81.3291015625
27.7935638427734,80.16015625
27.3989677429199,79.157958984375
27.8761215209961,78.57470703125
28.7126846313477,78.443603515625
29.5227890014648,78.711181640625
30.1136322021484,79.333251953125
30.3947143554688,80.31982421875
30.2851982116699,81.73193359375
29.7211112976074,83.60498046875
28.7654724121094,85.826904296875
27.7080535888672,88.0322265625
27.0543060302734,89.642822265625
27.3440780639648,90.06640625
28.8604164123535,88.994384765625
31.3943939208984,86.687255859375
34.2555084228516,84.088134765625
36.5708465576172,82.5751953125
37.7017936706543,83.33935546875
37.5255241394043,86.693115234375
36.4119758605957,91.790283203125
34.9332847595215,96.99072265625
33.4954566955566,100.662109375
32.1330223083496,101.884765625
30.5915603637695,100.73193359375
28.6315002441406,98.10009765625
26.3283996582031,95.283447265625
24.123161315918,93.452880859375
22.5683898925781,93.16748046875
21.9493713378906,94.16015625
22.072265625,95.5712890625
