TargetGA_1,TargetGA_2
14.5775946324182,3.01503624342968
0,0
11.6329393104885,2.1090280947224
0,0
-7.78496057670771,-3.73777794450563
0,0
4.04918257060181,-7.6383011958814
0,0
-1.49303099177419,6.1227044839292
0,0
-19.1103998656627,-9.11410003288695
0,0
15.4270011294424,-6.39896173088089
0,0
8.87213402422888,-8.64769705291469
0,0
-11.0522494572748,8.43094988011909
0,0
21.5105834887036,11.4570536277358
0,0
-14.8671960944686,-2.9461363835621
0,0
-9.53364696487967,-5.37003420849686
0,0
-4.26401783864868,10.2668788655953
0,0
-12.4736968039378,10.67497816668
0,0
-14.3591285138278,-2.6124630646839
0,0
9.78233998003019,-8.28512097768575
0,0
-15.0120480926293,-8.34648713165219
0,0
1.07406254245336,10.8396970444454
0,0
-9.70987163566756,-6.15633539565509
0,0
-1.78956737782378,-10.6667284031275
0,0
19.6453319421921,1.27623200407382
0,0
-13.4147938260395,11.3221979460454
0,0
-22.7285655798621,6.88019981328187
0,0
18.846793631133,-6.17182307649819
0,0
8.59476393150065,12.0958399312731
0,0
0.719127349238696,2.01604017501431
0,0
1.06136707737724,-1.07448552448551
0,0
-18.4354699429844,-11.9506333966909
0,0
22.642146610779,7.73123784895288
0,0
-6.75201146351198,10.1448580198664
0,0
6.00197796736592,-3.90119434974576
0,0
-5.1153165965061,10.3498211488225
0,0
-22.4557690215708,-12.7072802718483
0,0
2.17710628378403,6.69402533777158
0,0
0.438190277302997,-2.83966774148765
0,0
-12.0010111209406,-8.40185948767267
0,0
-20.8885210005365,-8.75089186663663
0,0
16.0069466561436,0.292884031885225
0,0
-20.7685756863915,-6.93303903910855
0,0
-8.76574111437534,-10.9568028018813
0,0
13.3833228326439,-10.5923468750599
0,0
21.6319015860643,7.59129675445418
0,0
4.15154482845334,-1.25734621349745
0,0
13.1383685300547,-7.56364795862331
0,0
10.8214555262977,8.11041490130751
0,0
7.22377514831502,-6.56834719387573
0,0
7.86796620775272,0.653095082938819
0,0
20.2212019929943,-2.22368541277296
0,0
1.68688207041642,6.37213621187591
0,0
-4.87313206149489,10.9585955554445
0,0
8.14353917014789,5.37836018085926
0,0
-2.85785300692766,-11.0088579231141
0,0
-17.1291093249723,0.78775144467538
0,0
-2.92169664707262,6.13662278118486
0,0
2.29034190496623,-6.99207433465078
0,0
-5.03085422001069,-7.23418593643945
0,0
-4.88116018001598,12.5852522455945
0,0
11.9148156795196,-10.0495007184253
0,0
1.07490052137054,-7.91681378481006
0,0
-0.460150487138918,4.6880960132998
0,0
-19.0496598254274,-4.5078133012379
0,0
-11.8134577660437,5.42706523212646
0,0
-2.52072475368788,-11.338632462165
0,0
6.60633206247055,5.80640699322942
0,0
9.97215569841808,8.77871088501461
0,0
22.4673634164123,-6.52291609523973
0,0
19.9418152079857,0.610983571349833
0,0
-18.8969344776984,-4.09330557323347
0,0
20.8438049734588,-12.2762809746007
0,0
-15.8056293459471,4.98359877471472
0,0
21.5510186911626,11.1743491941052
0,0
4.65563856302104,-7.73965716855888
0,0
-12.3021810938841,3.59244052579084
0,0
-19.8359086954208,-2.27279904745484
0,0
-9.52895529090474,8.4010232006408
0,0
14.746666465071,11.1620172753106
0,0
-19.5624265114534,9.17543657421972
0,0
-6.96516671857814,-8.6679119807355
0,0
-17.1670132677547,5.30355509208904
0,0
-16.0109740754749,3.09976449910586
0,0
-20.181937612532,-4.02163562479628
0,0
9.61709977328947,-8.41951724951801
0,0
-19.1440322369762,-7.07882062619035
0,0
5.59944067074044,3.35837911250378
0,0
-15.3156945351608,8.23029173252718
0,0
7.24338504305575,-3.90868657673189
0,0
-0.0627013890831308,13.0348265167811
0,0
-10.2539024686496,5.78187608792486
0,0
15.5093111986578,-3.69848424656133
0,0
14.9630429612959,-2.458869525356
0,0
20.1953458864984,4.6582611967698
0,0
-22.75649846206,-12.8459003776235
0,0
6.72155901022215,9.96600285951533
0,0
-22.4683696455533,-6.27776773737816
0,0
-18.2837164643881,9.09848480134358
0,0
-18.2675265520175,1.74578531986754
0,0
-6.36558559929489,-8.80802290054662
0,0
-12.3306188001417,3.7381278241223
0,0
-7.35973712864528,11.1795289766611
0,0
-11.8702108297522,-1.52078447078144
0,0
-2.66156085650716,-9.28769378270101
0,0
-15.6759343015173,7.28921287419042
0,0
-4.85838335946021,-7.88504178988284
0,0
19.446803734531,-13.0471598521286
0,0
0.545154814311381,5.82358754485178
0,0
19.1708148780255,-5.60377977171407
0,0
-18.9096583868369,-4.39088349755242
0,0
22.4845042826855,2.27453528792537
0,0
-18.7157354909737,0.0462309707751221
0,0
-8.91475451104266,-11.8302505084855
0,0
13.4723162344266,-11.9341062489466
0,0
4.91325912516448,-6.19977293042119
0,0
-1.63932259160788,3.07856880966975
0,0
-9.61827685875017,12.1062858659823
0,0
-17.1159814083706,-2.21501404172671
0,0
-9.76420442912741,-1.72870063168823
0,0
-15.6348705999225,3.86388420125641
0,0
-8.72892986116137,-10.055061203313
0,0
-18.135343862238,-3.3239105710219
0,0
15.5775387445761,-3.31020602780372
0,0
21.5983402518021,5.44169522913563
0,0
-13.3063341997548,11.2195937934737
0,0
9.81495689937968,5.49559084146911
0,0
-21.1559670370456,7.05234469381017
0,0
5.57599486799957,4.11080048842732
0,0
8.09199222979002,-9.23149972396804
0,0
-21.2317376901221,9.00082670088561
0,0
-22.6333353692023,9.06598397329408
0,0
-16.7068868632088,-0.231388288840673
0,0
16.9215193173872,-2.75823538569495
0,0
-10.648045566423,8.97390768830286
0,0
1.52396799431639,-3.61475285915889
0,0
1.06869582261272,-9.11301148634728
0,0
3.24885002394316,-7.49956035128217
0,0
-7.97896510530731,6.26606235401758
0,0
-4.15725611440678,4.93926839013391
0,0
-4.11268016044177,8.40471400872519
0,0
22.1091789271356,1.40331756727547
0,0
-20.3684868603681,4.62137682810195
0,0
-4.96371600104065,5.86310984641648
0,0
13.7424574720454,-11.3851693077738
0,0
4.52081027244907,2.67842652385994
0,0
-9.08294205804517,3.21861634932739
0,0
18.6396134465649,-2.47945684236219
0,0
-18.858285054981,11.3782201912976
0,0
-8.63853496777008,7.82745893327287
0,0
17.9962856186019,-5.95391444782171
0,0
7.5286563232078,-2.00724293895978
0,0
8.80507894844247,7.9586825282235
0,0
-1.25284228587392,-9.10102148350664
0,0
-16.7607114388538,2.03719754786747
0,0
20.7338671410425,-1.19564377293568
0,0
17.8074571955431,-0.74729088976983
0,0
-3.00637384655334,8.35470087757927
0,0
15.7054957957673,11.0392603140737
0,0
-8.35076936660399,0.95938620044863
0,0
-6.34039316491809,12.3494663166054
0,0
13.9020509760588,1.73679523298109
0,0
-18.5915940031567,-1.54586918473699
0,0
20.769899243435,-3.70331492951827
0,0
-22.7095338990099,12.2560383587959
0,0
-9.74612949007844,-5.59106146162372
0,0
-20.7599700849276,8.76712308060897
0,0
-2.75200521772193,-2.4937532927799
0,0
13.6755319704281,-2.88522637773208
0,0
19.1441315089007,-7.23911625514439
0,0
1.59908220115791,11.692035133467
0,0
14.3199290750905,-9.3937404245754
0,0
3.01111784989594,3.08911138782986
0,0
11.8930697877027,2.68038498786685
0,0
-22.3913275302694,4.65485592265466
0,0
-1.11648132264846,-1.47978330982054
0,0
-11.8375158501606,5.45020375972284
0,0
-9.1600684691065,3.57284961802399
0,0
21.4049922530353,4.02702605659875
0,0
-13.7367868729533,-3.47552614394226
0,0
0.984787868426449,-4.38557082798906
0,0
-12.9745072295286,-12.9257624289559
0,0
3.22872059360553,-11.7083024229363
0,0
22.6946930307995,3.99247024723406
0,0
-17.1734034018868,8.14820704529772
0,0
20.8915379021561,-11.0718420746852
0,0
-17.5234468499875,5.62831279562481
0,0
-14.7564258712792,-1.35879052622032
0,0
7.01140712582363,-11.0653568241165
0,0
-17.3355473855695,10.8239323964211
0,0
-19.3652834570182,6.44739057822732
0,0
7.6135130049644,1.94864367534538
0,0
-21.6402588495421,-2.075981797227
0,0
22.161097468356,-10.5548132426587
0,0
1.89108756276561,7.48656259065516
0,0
-6.04585977892805,-12.2879133877083
0,0
9.84564876469942,1.76356611138068
0,0
20.5859083998091,-7.56661364488982
0,0
-5.64400116527141,-0.67425759628479
0,0
9.19882519403638,4.49928139684829
0,0
4.89755290326051,1.82730747407564
0,0
13.0112167104917,-5.80275808099396
0,0
4.40840276647495,-10.9852386461399
0,0
-5.93430145680339,-10.309451884621
0,0
-9.06554151571647,5.22938019171803
0,0
-8.04446468430118,10.8453213176595
0,0
-14.6682721030386,-0.575184643284773
0,0
-18.5321731737757,-8.62652983442249
0,0
-10.1582433784802,-7.01724410069166
0,0
-6.9484309165071,-11.7922643168883
0,0
1.71958119180847,4.43898050931405
0,0
22.3939316694287,2.94377391132445
0,0
-21.6078686039696,9.26005037559792
0,0
9.97620189238697,4.43480640890671
0,0
18.7843384138282,-1.43408467814642
0,0
17.0721335059705,-1.34368832797024
0,0
-17.7291406640423,8.99934962684777
0,0
20.9166650746893,10.125246470224
0,0
-2.84027699567168,2.70887463211142
0,0
17.5076003505547,-8.78557421929747
0,0
17.0335459509208,8.35748964472051
0,0
-6.93305769474932,-0.0209966976702654
0,0
6.28269482369088,9.88618131309634
0,0
17.0158504285304,-9.65112960447777
0,0
-21.9060311602954,-7.08880643290086
0,0
-19.5577124142171,-1.71911342458515
0,0
-5.90886054286995,2.94827821309273
0,0
-16.4095037159762,0.263535565558397
0,0
-21.3613690046462,-10.2286293967595
0,0
13.3300630148862,-10.6974785647067
0,0
-8.25178833870382,0.0430496839835954
0,0
14.9233708557533,-0.780942533519947
0,0
-15.3225191110231,-10.8174678858987
0,0
8.41013995234356,-2.09933635809121
0,0
17.5006122527413,-7.32918002636898
0,0
12.1819471806674,-4.30460552412991
0,0
-12.7880359376312,0.810753031792306
0,0
-6.75320680158097,7.44605355985394
0,0
-6.55293174503492,-2.7392730529956
0,0
-11.0467796674775,8.376902680743
0,0
-7.77743188043821,8.03003250379828
0,0
-19.1234702011032,-9.58264935677876
0,0
-2.3286435483618,9.90343235516972
0,0
-2.17955761875352,-3.88417633972486
0,0
-21.5722112675479,1.67448086839759
0,0
6.56555752059555,-3.00622596188763
0,0
-20.2957663610631,-6.32015094108154
0,0
-15.5202141910092,5.24201287595779
0,0
8.81272825548043,12.0325650231456
0,0
2.62279316226302,-8.89318564660122
0,0
-22.5225599601825,3.48797947048874
0,0
-10.0873356675735,-4.30313550123566
0,0
-5.91375563830797,-10.4566088525904
0,0
-16.5289607839083,6.01424772624245
0,0
-19.6553129389248,-13.0729599623049
0,0
-1.88754060154712,-8.86307951966465
0,0
-6.20946006383044,-7.73778227983787
0,0
15.2409066879426,-4.17752379357092
0,0
1.80482588313936,-1.16685164362104
0,0
14.9251561178735,3.02524179393179
0,0
-1.90493571673431,-8.54659897543734
0,0
-22.1935322442299,-2.54581412062165
0,0
-22.5657479714938,-7.48306728671416
0,0
-15.6527244990435,-12.8134671982468
0,0
-6.42117321835712,-7.65669677297534
0,0
10.3805891097067,-9.34680574733413
0,0
-15.9556755837769,0.384442465888815
0,0
-10.5209776869779,-9.88801100211525
0,0
6.93727716879125,4.43101701173283
0,0
-10.1284057479622,7.82538400828857
0,0
-8.50196927116041,0.150787832819253
0,0
-16.1336778437118,12.3327840201948
0,0
-5.3873443271632,-8.68615023141871
0,0
18.3770845147872,6.27421863610841
0,0
18.0313133558611,-4.73227608234502
0,0
-5.10353963351463,-7.80390662825256
0,0
8.3790717276973,-4.84755942591269
0,0
-11.7506525737316,-4.021909243378
0,0
20.6944296479842,6.98385518738468
0,0
5.97531554449429,0.60379285725312
0,0
-13.8210132255928,-11.5046699245192
0,0
-18.1433587891564,6.88479956676064
0,0
3.16407225753266,7.72577666628579
0,0
-10.7271880808389,6.05724409546915
0,0
-19.7988681251089,-7.33002952574601
0,0
-15.9989893246397,4.49570779699359
0,0
-20.7151360268579,-2.75220229681516
0,0
8.63434525385244,8.38328774205231
0,0
13.3075679341254,10.8906772846639
0,0
14.4683388263984,5.09263339462767
0,0
-11.1574512094472,7.15394982097276
0,0
18.3842864159777,-10.8042247781499
0,0
5.17985186025577,-11.5166027508313
0,0
-22.1783960351582,12.3156992311642
0,0
-7.45960656073745,-2.50080960602947
0,0
1.61880523428594,12.0108418951525
0,0
6.12183434731391,2.0058963224467
0,0
-2.5601710172257,-0.576666848350956
0,0
14.6368911274053,-9.01917220436549
0,0
-16.602537209233,-3.33721418880894
0,0
21.7327991111473,6.51312262378649
0,0
15.6521380327219,-10.6882661896948
0,0
-7.64525555784598,-7.10603962273723
0,0
5.57332398722765,-1.67404599633774
0,0
