TargetGA_1,TargetGA_2
-3.80653655850048,-1.03778550106581
0,0
19.4706984905012,-13.1918155165656
0,0
13.9550176573273,11.270787326393
0,0
21.3432806476829,1.55127415213195
0,0
7.54448852432184,10.5275020940028
0,0
-21.5457240643772,-12.3102243303209
0,0
16.5362040066433,13.1720833521141
0,0
20.2575695059025,-7.40018049547156
0,0
8.64263928354488,-8.52565753023051
0,0
12.3627737656465,-9.8811296731319
0,0
11.681911051406,11.1077068571372
0,0
-5.23656146453836,2.71077896317226
0,0
7.53190365214473,6.47244253522999
0,0
-15.622275139842,-8.06884499253874
0,0
9.93860952561881,1.85592336932054
0,0
-21.7090447160123,-10.9795030422098
0,0
-10.741684814957,8.54815272826712
0,0
-21.1034789870061,6.36732344336591
0,0
-18.9114973368831,9.50676112936664
0,0
15.3799702721654,9.75594148068535
0,0
9.40747861904776,-9.89682653984863
0,0
-8.84090670191735,-2.15652040643235
0,0
20.9503746718602,-1.34942615843628
0,0
-21.5990534271287,9.52214240611953
0,0
-2.98195868713886,-9.4691065670617
0,0
-5.75161383092305,-3.30027983761024
0,0
12.7238147420071,4.02795081198547
0,0
14.0922672310648,-0.358649745358757
0,0
-14.9109872898209,2.65607359830449
0,0
-0.498712695933821,11.328283270861
0,0
-2.64939838354877,7.00514658810756
0,0
7.09258506683661,10.09081311453
0,0
10.0954212779167,8.49359428827716
0,0
12.2207388394708,7.00417666645802
0,0
-10.783909276505,2.23837470621564
0,0
8.68871118872575,12.0113850177594
0,0
7.51371112763239,-10.7724479718444
0,0
-16.0090491795402,-11.8673636244691
0,0
-17.9526292883405,0.247300162222677
0,0
-0.0797107926299946,0.290919968483514
0,0
21.3539122270275,4.38422864839816
0,0
-7.7298929841004,-10.7028841994928
0,0
4.14737468248825,3.53489304837756
0,0
-13.2175695271594,10.408403302652
0,0
12.061489698302,-7.54232864718604
0,0
-11.7647059120274,2.98198596438624
0,0
0.290252226346205,6.95780509268037
0,0
9.60881711931638,2.59923669144508
0,0
18.3881316063913,10.7941123578474
0,0
21.334783765248,9.86357905392148
0,0
2.29932069944797,-11.7964004387509
0,0
-17.0829892033306,-12.1612175540701
0,0
-16.6067781993841,-2.03498030033907
0,0
-11.6519688047241,11.7489224407799
0,0
16.1588029216305,7.14207204149906
0,0
-11.8026639591573,3.96852135128383
0,0
14.9636356055322,-8.62863620294817
0,0
-12.3039447331091,12.8953968130919
0,0
20.0544830240226,12.1829876947213
0,0
-7.27020302412906,8.88818444425165
0,0
-14.4677201812374,-4.0297785483814
0,0
-11.9518993477402,-6.24765901897526
0,0
5.63597712752479,-3.99288837290945
0,0
-1.3012652508303,1.32821797398155
0,0
-7.18984654543571,-1.27228389801083
0,0
15.7133088993903,5.4965088931787
0,0
4.14719729171256,-6.59436574759368
0,0
2.42131838948041,8.35990403120461
0,0
19.5338273031484,-5.04279974906245
0,0
-10.3217707379057,8.50409630920575
0,0
12.3376707613851,3.55544588765218
0,0
12.1761639460583,-3.39640993800732
0,0
-5.80527572898524,-7.54167333420438
0,0
3.30092253767981,11.1939568217197
0,0
-19.8341302581168,-11.4675168283127
0,0
-20.7728678777419,-7.42153451098337
0,0
1.50025419447104,0.357535288520814
0,0
13.3550614701454,1.73572544912962
0,0
20.2583172360944,1.44021786179315
0,0
-17.4703125194723,5.22741200286617
0,0
3.34958126018051,-0.230321244098577
0,0
-1.49109076891625,-0.291575095793611
0,0
-22.5423804191887,-8.53424790539743
0,0
-7.88595077577025,-7.92982733415652
0,0
-16.0283795031318,-3.90053927762189
0,0
14.0503031117404,3.28235126413861
0,0
-9.12063599418275,-8.37409194989798
0,0
1.38999166071538,-0.888491166230002
0,0
-15.8722345851563,4.03401875467773
0,0
4.95662297472072,-11.7172923339626
0,0
-11.3964096499682,-10.0714414840979
0,0
7.46490883351229,-1.35743798753269
0,0
9.14103834173238,-3.31160986555764
0,0
11.9162399532019,-2.35490349343815
0,0
-2.40841924699707,7.86147374892187
0,0
-19.4898871824171,5.36437307750658
0,0
-12.9788308454098,0.787032157367995
0,0
19.3667651315524,7.25642178636322
0,0
-16.4686863053561,-9.23923805760244
0,0
15.4867782421049,8.20591527281783
0,0
-6.48004557447931,-5.00949897761452
0,0
-6.34713860665438,5.55476265696048
0,0
8.9421132265493,-0.829052852599259
0,0
4.76117342219602,-8.92552730930383
0,0
13.8244586663932,-2.63711763196668
0,0
-6.42152985211697,4.44902684925406
0,0
-14.0359777991017,5.41860517689006
0,0
-19.3665956164792,1.28306740007075
0,0
13.0209674991376,2.09298873334936
0,0
-14.0521802105746,3.79478599454027
0,0
-5.42762153375714,-1.57825472229962
0,0
2.52125745589845,-6.53699622729701
0,0
-12.9799281369456,2.0473249926914
0,0
6.88269558787385,1.91157263215562
0,0
-0.756143093857418,10.0500383779447
0,0
-16.4925437223766,12.6629067997296
0,0
13.4825171283449,5.66102335169863
0,0
-18.7598485524525,4.92738817560416
0,0
-9.93329490924921,-4.15298049262153
0,0
-12.5897701470755,-12.1819460507241
0,0
1.50389161368418,-11.6323827830685
0,0
-19.1567718288208,1.13983281214729
0,0
-4.6035324666148,6.99015300379828
0,0
-18.5744241768009,-7.10683322714788
0,0
-18.2481762133115,-6.98497343050145
0,0
13.5974637952161,-6.48629832711319
0,0
-10.0512505311896,-6.56753280370881
0,0
5.03164609265445,10.5466633509718
0,0
21.5513869456972,-4.90269455562653
0,0
-3.28603121000627,0.994406847888618
0,0
9.40385413723706,7.74400895024941
0,0
12.3794697196542,10.7401859313275
0,0
-3.27839039841217,-8.6916117161049
0,0
7.5328685631318,8.72905705908734
0,0
-18.3592430774029,9.03134397939279
0,0
20.2475599206864,-4.48396430060916
0,0
-14.8842217318211,-10.5547680169461
0,0
-11.2461460117228,-0.448208292069055
0,0
14.2127683956874,-5.47030679555883
0,0
-0.603978190058159,9.29463115845781
0,0
12.883263962787,-12.0919390166709
0,0
-5.05387732329155,-1.10656172402305
0,0
-10.9289522741117,-4.85360932864657
0,0
-21.4814982603821,12.3499815595064
0,0
8.38337525874122,-8.31111342316186
0,0
-3.42784497328766,-6.69921729877538
0,0
-2.35016551890951,10.1729680267815
0,0
5.33725041339573,-0.67792090898297
0,0
-20.5402297027333,4.70394688984679
0,0
-8.90217331213888,-1.25714734775968
0,0
13.0574179065004,2.73513748559874
0,0
9.48354530724966,2.29712241667181
0,0
-17.6728671366327,8.57751404443542
0,0
-17.4594395212448,6.59224084749648
0,0
-19.1196506379814,12.7633185382309
0,0
-22.7118245966463,-11.3189740310879
0,0
-3.74113541862596,-4.15324316880026
0,0
7.53646654322223,-11.55140705839
0,0
10.7344186560507,9.03286318789702
0,0
1.52030213566544,-11.2518528995044
0,0
-18.4003637601392,-7.92521932887118
0,0
6.39358750920781,-2.09406599941852
0,0
-17.6212009584055,1.62275434267791
0,0
-17.2751671595049,6.53274523476564
0,0
-18.8477071038729,-6.7880486060734
0,0
-16.9313735427863,7.30486128866445
0,0
-15.7548425004539,11.6345132337568
0,0
-14.4835404686805,-7.19828287750413
0,0
-8.82281379466503,-4.62423929650604
0,0
-8.87280115029541,-5.80567866659402
0,0
-13.5057705136817,-3.8397142948875
0,0
-11.9538585585737,2.19023036683679
0,0
18.4766782963129,2.95436180364793
0,0
9.80510967695146,-8.49486237900179
0,0
2.71377545744789,4.92987948524279
0,0
-15.0218976199471,-8.45248335108953
0,0
-13.7603609862052,-7.77687557051506
0,0
-19.7697539353814,-9.44889925018421
0,0
19.3868434489389,-0.152578361390117
0,0
9.97023832094359,-3.66722908849994
0,0
2.81347834695752,-12.0255976600445
0,0
-9.01544197908657,1.51649121075615
0,0
-15.847219572857,11.7427138224345
0,0
5.94717412527912,-9.83002762492612
0,0
22.5355971064398,-3.54663713598625
0,0
-15.656373577663,3.91692674495339
0,0
-11.6386950107606,-13.2141000990391
0,0
-5.01555695818328,7.42461739976103
0,0
-19.9142633806921,-4.11961460353204
0,0
8.89777441893069,-2.83968516661598
0,0
-4.74520626818916,3.04929364361935
0,0
22.3232968296709,9.59499434422134
0,0
-4.75509472882561,12.6448426630392
0,0
5.85917736823914,2.13444016112789
0,0
-16.3793959035571,8.48849704324385
0,0
-5.76189992989924,-6.08853389161051
0,0
-16.075553807927,3.50480024070754
0,0
12.3800812782872,-9.16673599070238
0,0
17.5154028097949,-6.31471734340999
0,0
-7.23218102894084,-1.92189234283953
0,0
4.01176012584555,-1.92095146503796
0,0
9.01861704039245,8.86765166143821
0,0
10.5701911925581,9.45101516757005
0,0
7.27137851397464,0.647475300571523
0,0
10.9220632679123,-10.9130913567616
0,0
-6.1232971852283,-1.41205022520139
0,0
3.96869163623949,12.4435365951749
0,0
-18.0794961777527,11.9023540933085
0,0
-20.614918643996,-8.2013413905966
0,0
22.1951769933712,1.31601225317478
0,0
-10.369644915825,3.17342354293367
0,0
4.61755767089677,-7.79202696375917
0,0
21.4559966346307,3.66862396105295
0,0
-14.960766505223,-0.875618650210745
0,0
-14.630025021788,-5.71039463969329
0,0
-7.66967974402203,-9.9541973497825
0,0
20.2105829718793,4.62714921493651
0,0
-5.31190451033636,-4.05678186308264
0,0
-10.915897208473,-12.644098717892
0,0
-16.4879942013303,11.3282658446092
0,0
-5.00059046250636,-2.35421338192342
0,0
-6.08115455553846,2.32973869762625
0,0
-17.4167202029342,5.15258870421347
0,0
-3.16189859763681,6.36649127557811
0,0
-19.1561441885876,-6.97000856252416
0,0
5.56755764735344,-13.1682390258659
0,0
-22.5807319259889,8.4230512494841
0,0
3.56497219004938,-7.56608899318452
0,0
13.8412685007124,8.17850222176805
0,0
-12.682845446254,-13.0948938142284
0,0
-2.53106876144534,-8.12703217378227
0,0
3.37553602769057,2.05024672275157
0,0
-20.4548087914978,-6.17118650743181
0,0
-0.180821806501215,0.0445671931219323
0,0
6.90068568770713,-8.30545259179334
0,0
-13.335089567758,3.87825433372852
0,0
15.9941100284287,11.3991377340634
0,0
21.8312486322474,-2.46155021411553
0,0
16.4126999111633,-10.9675085681351
0,0
0.292318300085105,8.23238758341765
0,0
-10.6498211203345,1.83012703666178
0,0
11.8446469989577,-6.71365820250606
0,0
-12.6103110557982,12.2822491780077
0,0
21.2524639529421,-11.9072243746718
0,0
5.83931562862555,-7.10084591754831
0,0
4.87344182468931,-1.5918154990476
0,0
-15.5581825829339,8.49531125963678
0,0
-19.2068425679123,0.0555239168118044
0,0
-11.7569028925727,-0.483054656380216
0,0
16.9580260180275,-13.1432658125284
0,0
19.2682505787254,-9.51704729180332
0,0
9.63520057537392,-12.3232944320618
0,0
10.8406705343674,-4.83229943051532
0,0
-12.936762085208,2.61033258385888
0,0
3.70051702410763,-11.6128584985819
0,0
14.7972136501211,0.555319525236596
0,0
-4.67478831883303,7.22169864493776
0,0
22.5565661117336,2.80509655712148
0,0
-19.2219588646289,-5.53400959597457
0,0
-8.65805999200397,-1.58474191021431
0,0
0.555878059356052,-6.91304491425825
0,0
-20.4888097608786,-13.1750418803333
0,0
10.8644308712099,-12.32400401137
0,0
2.75353204604302,-0.94915161271765
0,0
1.43025111889541,-12.3611696830523
0,0
15.6750952966856,10.2925379301925
0,0
16.966428996179,11.9649215556236
0,0
13.8090659531802,5.28111051549889
0,0
-8.80600463481103,-2.16969096919434
0,0
-2.32738975395536,-0.838123133307821
0,0
12.1062577795393,-10.7330480779613
0,0
-18.3545617906772,-1.09753326249003
0,0
-18.3597997026568,1.84059695665105
0,0
-11.0723917146124,-1.15480477106037
0,0
1.20026815624293,-5.73071190719588
0,0
21.8973821205305,12.8626940723725
0,0
10.1447122992678,-8.09146296563359
0,0
-9.09000029213738,9.58651565640808
0,0
-10.0565975946756,0.582658687968607
0,0
16.5911764091273,6.55354183162685
0,0
19.2934456593331,3.5390752941061
0,0
6.75470042940957,-4.37035100573406
0,0
-11.7518545753232,8.87183358885411
0,0
-19.279847186514,5.96647848533772
0,0
16.0480871820682,8.11420896979932
0,0
4.12075753576884,8.19776769663357
0,0
20.8605151596591,4.67689683773085
0,0
-20.4707409818453,-10.1867322537541
0,0
4.11700978721689,0.782200764920614
0,0
-10.3562379857737,2.59769079762335
0,0
15.5734056690364,8.6173767391065
0,0
-14.7236521232238,-12.4916648491188
0,0
-2.79797590860827,2.50350459034355
0,0
-5.17932339208675,-9.24394802523571
0,0
15.5210273517008,-3.11867438632249
0,0
8.55384384371932,3.33626351227662
0,0
-13.9637198844212,-10.1039496420581
0,0
-8.79307729437123,-7.66467641996747
0,0
-17.2970371811658,0.948572800017519
0,0
8.29598854868584,-8.43757616424369
0,0
