Horizontal,Vertical
0,0
-2.53125,1.34619140625
-3.390625,1.0732421875
-2.7412109375,-1.14208984375
-1.513671875,-4.4033203125
-1.064453125,-7.134765625
-2.4443359375,-8.112548828125
-5.619140625,-7.2705078125
-9.302734375,-5.72705078125
-11.6015625,-4.9921875
-11.12890625,-5.923095703125
-7.8779296875,-8.145263671875
-3.2509765625,-10.36767578125
0.77734375,-11.319091796875
2.7802734375,-10.61669921875
2.5869140625,-8.95361328125
1.1875,-7.54736328125
0.033203125,-7.30517578125
0.294921875,-8.282470703125
2.333984375,-9.78369140625
5.72265625,-10.904296875
9.447265625,-11.116455078125
12.2744140625,-10.4736328125
13.22265625,-9.395751953125
11.9951171875,-8.224853515625
9.19140625,-6.92333984375
5.9990234375,-5.112060546875
3.5458984375,-2.45361328125
2.333984375,0.856201171875
2.208984375,3.915283203125
2.7685546875,5.499755859375
3.8359375,4.79052734375
5.583984375,1.986328125
8.2158203125,-1.6357421875
11.373046875,-4.24658203125
13.97265625,-4.32666015625
14.6533203125,-1.462158203125
12.5966796875,3.362548828125
8.1474609375,8.119873046875
2.73046875,10.6533203125
-1.8076171875,9.68505859375
-4.01171875,5.398193359375
-3.3447265625,-0.691162109375
-0.283203125,-6.46875
3.9111328125,-10.117919921875
7.51953125,-10.762451171875
8.935546875,-8.615478515625
7.3388671875,-4.69384765625
3.1455078125,-0.36669921875
-1.9541015625,2.970947265625
-5.7001953125,4.10546875
-6.283203125,2.20361328125
-3.30859375,-2.87451171875
2.013671875,-10.3359375
7.396484375,-18.448486328125
10.58203125,-24.936279296875
10.3447265625,-27.748779296875
6.986328125,-25.969482421875
2.099609375,-20.3994140625
-2.1572265625,-13.416259765625
-4.046875,-8.041748046875
-2.9931640625,-6.580810546875
0.1767578125,-9.516357421875
3.7021484375,-15.2548828125
5.75,-20.914306640625
5.3125,-23.78515625
2.59765625,-22.693115234375
-1.1875,-18.504638671875
-4.5966796875,-13.490966796875
-6.7158203125,-9.906005859375
-7.56640625,-8.671875
-7.9423828125,-9.0126953125
-8.8056640625,-9.239990234375
-10.697265625,-8.095703125
-13.43359375,-5.65234375
-16.1708984375,-3.224365234375
-17.7109375,-2.502197265625
-16.814453125,-4.597412109375
-12.5263671875,-9.621337890625
-4.408203125,-16.943115234375
7.2607421875,-25.82470703125
21.4853515625,-35.906005859375
36.66796875,-47.156005859375
50.966796875,-59.382568359375
62.7275390625,-71.72802734375
70.984375,-82.614013671875
75.6240234375,-90.206298828125
77.3173828125,-93.193603515625
77.130859375,-91.457275390625
76.16796875,-86.273681640625
75.29296875,-79.938720703125
75.0107421875,-74.9111328125
75.4775390625,-72.855224609375
76.5771484375,-73.955810546875
77.98046875,-76.84130859375
79.2626953125,-79.23046875
80.0625,-79.07763671875
80.28125,-75.63427734375
80.1650390625,-69.804931640625
80.1298828125,-63.651611328125
80.4306640625,-59.38232421875
80.9453125,-58.489990234375
81.2353515625,-61.318603515625
80.8876953125,-67.1142578125
79.8564453125,-74.368408203125
78.595703125,-81.285888671875
77.7451171875,-86.288330078125
77.7412109375,-88.468017578125
78.5478515625,-87.89013671875
79.7109375,-85.534912109375
80.71875,-82.7529296875
81.380859375,-80.49609375
81.9716796875,-78.845458984375
82.986328125,-77.16015625
84.6357421875,-74.731689453125
86.4931640625,-71.399658203125
87.607421875,-67.69140625
86.9443359375,-64.463134765625
84.0224609375,-62.350341796875
79.3427734375,-61.48779296875
74.4296875,-61.7255859375
71.4111328125,-63.105224609375
72.080078125,-66.0849609375
76.8564453125,-71.1923828125
84.2763671875,-78.31396484375
91.455078125,-86.229248046875
95.375,-92.888671875
94.3388671875,-96.3916015625
88.78515625,-96.081298828125
81.0224609375,-92.98486328125
74.0361328125,-89.28564453125
70.0966796875,-87.1025390625
69.8505859375,-87.322021484375
72.376953125,-89.225341796875
75.9814453125,-91.11083984375
79.0703125,-91.447509765625
80.7587890625,-89.756591796875
80.9453125,-86.730224609375
80.095703125,-83.683349609375
78.9580078125,-81.853515625
78.2607421875,-81.900390625
78.404296875,-83.7470703125
79.34375,-86.68359375
80.5458984375,-89.64794921875
81.2841796875,-91.5966796875
81.0029296875,-91.86572265625
79.6376953125,-90.396484375
77.705078125,-87.735595703125
76.115234375,-84.822509765625
75.814453125,-82.668701171875
77.3544921875,-81.988525390625
80.53515625,-82.91943359375
84.3115234375,-84.906005859375
87.2431640625,-86.9365234375
88.14453125,-88.045166015625
86.7548828125,-87.854736328125
83.884765625,-86.81298828125
80.9873046875,-85.9765625
79.3720703125,-86.360107421875
79.517578125,-88.216552734375
80.810546875,-90.6962890625
82.0107421875,-92.2041015625
81.990234375,-91.27001953125
80.3662109375,-87.477294921875
77.681640625,-81.90478515625
75.076171875,-76.802734375
73.78125,-74.576171875
74.4755859375,-76.551513671875
76.912109375,-82.14990234375
79.9130859375,-88.981201171875
81.9609375,-93.905517578125
81.9404296875,-94.552001953125
79.736328125,-90.51513671875
76.3173828125,-83.60009765625
73.2724609375,-76.917724609375
72.017578125,-73.294677734375
73.1025390625,-73.907470703125
75.9970703125,-77.943603515625
79.4580078125,-83.380615234375
82.1943359375,-88.20068359375
83.376953125,-91.2431640625
82.7919921875,-92.3603515625
80.693359375,-92.061767578125
77.6337890625,-91.015869140625
74.330078125,-89.64404296875
71.470703125,-88.013671875
69.55859375,-86.015625
68.7119140625,-83.6357421875
68.7265625,-81.100830078125
69.244140625,-78.776611328125
69.99609375,-76.9658203125
70.7802734375,-75.711181640625
71.482421875,-74.78515625
72.0029296875,-73.83251953125
72.3125,-72.6298828125
72.49609375,-71.254150390625
72.76171875,-70.057861328125
73.296875,-69.4609375
74.1455078125,-69.7138671875
75.0302734375,-70.81640625
75.5302734375,-72.625
75.3740234375,-75.008056640625
74.8095703125,-77.867919921875
74.6171875,-81.0244140625
75.673828125,-84.085693359375
78.337890625,-86.442626953125
82.09375,-87.462646484375
85.7958984375,-86.867431640625
88.2568359375,-85.078125
88.900390625,-83.233642578125
87.947265625,-82.702880859375
86.15625,-84.29052734375
84.37109375,-87.62109375
83.16796875,-91.189453125
82.6708984375,-93.17529296875
82.58203125,-92.5859375
82.4345703125,-89.99560546875
81.8388671875,-87.338134765625
80.783203125,-86.7880859375
79.66796875,-89.3876953125
79.11328125,-94.353515625
79.537109375,-99.511474609375
80.7666015625,-102.552001953125
81.9755859375,-102.250244140625
82.0830078125,-98.979736328125
80.4697265625,-94.345947265625
77.5146484375,-90.353271484375
74.5478515625,-88.56640625
73.11328125,-89.580078125
74.01953125,-92.859375
76.8955078125,-96.9697265625
80.4130859375,-100.114501953125
83.0966796875,-100.8173828125
84.02734375,-98.53564453125
83.072265625,-93.972412109375
80.6455078125,-88.899169921875
77.3212890625,-85.383544921875
73.6474609375,-84.779296875
70.251953125,-87.00732421875
67.9716796875,-90.63232421875
67.71875,-93.697021484375
70.0244140625,-94.734130859375
74.509765625,-93.392822265625
79.693359375,-90.350830078125
83.4873046875,-86.73486328125
84.255859375,-83.47265625
81.7919921875,-80.9599609375
77.537109375,-79.103515625
73.861328125,-77.623291015625
72.689453125,-76.39208984375
74.423828125,-75.650390625
77.759765625,-75.9736328125
80.666015625,-78.005859375
81.6767578125,-82.115966796875
80.794921875,-88.0673828125
79.26953125,-94.835693359375
78.6123046875,-100.69482421875
79.5576171875,-103.755859375
81.6181640625,-102.8447265625
83.4677734375,-98.265380859375
83.916015625,-91.936279296875
82.7001953125,-86.67138671875
80.654296875,-84.8671875
79.109375,-87.258056640625
78.9169921875,-92.365478515625
79.8818359375,-96.99755859375
80.939453125,-97.689697265625
81.005859375,-92.559814453125
79.8037109375,-82.581298828125
78.1181640625,-71.43896484375
77.16015625,-63.745361328125
77.6884765625,-62.600830078125
79.369140625,-67.936279296875
80.9345703125,-76.69970703125
80.962890625,-84.671630859375
78.8623046875,-88.742431640625
75.287109375,-88.287353515625
71.763671875,-84.949462890625
69.7431640625,-81.257080078125
69.83984375,-79.08935546875
71.6005859375,-78.95556640625
73.857421875,-80.318359375
75.41796875,-82.40673828125
75.6767578125,-84.811767578125
74.8740234375,-87.4794921875
73.900390625,-90.30712890625
73.6767578125,-92.79638671875
74.5537109375,-94.109130859375
76.0009765625,-93.489013671875
77.0048828125,-90.7646484375
76.7568359375,-86.53857421875
75.2529296875,-81.896728515625
73.2763671875,-77.83251953125
72.0078125,-74.8408203125
72.3740234375,-72.96142578125
74.6640625,-72.152099609375
78.3134765625,-72.494140625
82.0654296875,-73.951171875
84.4228515625,-75.90625
84.28125,-77.021240234375
81.5927734375,-75.770751953125
77.466796875,-71.44189453125
73.740234375,-64.88037109375
72.130859375,-58.343505859375
73.4130859375,-54.392578125
77.1064453125,-54.45849609375
81.8076171875,-58.0078125
85.9560546875,-62.901611328125
88.474609375,-66.701904296875
88.98046875,-68.0625
87.529296875,-67.30517578125
84.4033203125,-65.951171875
80.2158203125,-65.68603515625
76.0869140625,-67.407958984375
73.412109375,-70.7802734375
73.1689453125,-74.394287109375
75.16796875,-76.44287109375
77.96875,-75.63427734375
79.701171875,-71.911376953125
79.1982421875,-66.535888671875
76.7236328125,-61.435791015625
73.8310546875,-58.211181640625
72.4306640625,-57.46337890625
73.5791015625,-58.733154296875
76.8232421875,-60.939453125
80.478515625,-62.969482421875
82.732421875,-64.17724609375
82.736328125,-64.626953125
81.0224609375,-64.8916015625
78.830078125,-65.376708984375
77.0478515625,-65.578125
75.453125,-63.85693359375
72.8212890625,-57.994140625
67.748046875,-46.24560546875
59.6103515625,-28.294189453125
49.0546875,-5.5859375
37.7568359375,19.06640625
27.5869140625,42.433349609375
19.666015625,61.876953125
13.990234375,75.976318359375
9.7998046875,84.555419921875
6.328125,88.289306640625
3.3388671875,88.26123046875
1.1044921875,85.74609375
0.1005859375,82.1669921875
0.572265625,78.975341796875
2.2900390625,77.331298828125
4.4892578125,77.7431640625
6.1611328125,79.905517578125
6.486328125,82.890869140625
5.2744140625,85.594482421875
3.0126953125,87.201904296875
0.6474609375,87.443115234375
-0.873046875,86.58935546875
-1.005859375,85.2197265625
0.201171875,83.85791015625
2.15625,82.6806640625
4.01953125,81.5361328125
5.01171875,80.296142578125
4.712890625,79.244384765625
3.150390625,79.126953125
0.73828125,80.73388671875
-1.8935546875,84.285400390625
-4.166015625,89.13232421875
-5.642578125,93.95947265625
-6.1357421875,97.375244140625
-5.7431640625,98.46337890625
-4.8486328125,97.0693359375
-3.97265625,93.725830078125
-3.58203125,89.36767578125
-3.873046875,85.038330078125
-4.681640625,81.73193359375
-5.4990234375,80.27734375
-5.775390625,81.126220703125
-5.189453125,84.00732421875
-3.83203125,87.764404296875
-2.0693359375,90.650390625
-0.275390625,91.15771484375
1.236328125,88.962646484375
2.005859375,85.355224609375
1.27734375,82.722900390625
-1.701171875,83.18408203125
-6.9833984375,87.183837890625
-13.3896484375,92.981201171875
-18.7119140625,97.49560546875
-20.7744140625,98.06005859375
-18.654296875,93.98388671875
-13.3447265625,86.9716796875
-7.265625,80.213134765625
-3.0146484375,76.72216796875
-1.9619140625,77.872314453125
-3.720703125,82.84033203125
-6.578125,89.193115234375
-8.6455078125,94.17529296875
-8.8583984375,96.036865234375
-7.3798828125,94.741943359375
-5.318359375,91.810302734375
-4.0205078125,89.443359375
-4.3564453125,89.466796875
-6.2880859375,92.525146484375
-8.935546875,97.812255859375
-11.1298828125,103.4208984375
-12.166015625,107.23095703125
-12.17578125,107.92626953125
-11.9931640625,105.5634765625
-12.6015625,101.3525390625
-14.5986328125,96.95263671875
-17.9453125,93.76123046875
-21.9970703125,92.482177734375
-25.7197265625,92.97412109375
-27.9599609375,94.376953125
-27.71875,95.55810546875
-24.6064453125,95.751953125
-19.2548828125,95.037109375
-13.4130859375,94.313720703125
-9.333984375,94.734619140625
-8.7041015625,96.93212890625
-11.689453125,100.57470703125
-16.7705078125,104.50634765625
-21.5751953125,107.373779296875
-24.0888671875,108.326416015625
-23.6650390625,107.374267578125
-21.1787109375,105.273193359375
-18.3916015625,103.04541015625
-16.8486328125,101.49072265625
-17.0673828125,100.939208984375
-18.3505859375,101.307861328125
-19.470703125,102.266357421875
-19.5029296875,103.361083984375
-18.435546875,104.039794921875
-16.9189453125,103.722900390625
-15.6396484375,101.998779296875
-14.81640625,98.83984375
-14.1494140625,94.693115234375
-13.2724609375,90.40576171875
-12.3115234375,87.08642578125
-11.91015625,85.840576171875
-12.7958984375,87.348876953125
-15.10546875,91.418701171875
-18.1796875,96.83447265625
-20.826171875,101.7412109375
-22.0595703125,104.39208984375
-21.5673828125,103.833740234375
-19.779296875,100.166748046875
-17.4306640625,94.320556640625
-15.0830078125,87.60986328125
-12.9638671875,81.364990234375
-11.208984375,76.740966796875
-10.13671875,74.620361328125
-10.1796875,75.427001953125
-11.6083984375,78.921630859375
-14.197265625,84.177734375
-17.1552734375,89.855712890625
-19.3984375,94.677001953125
-20.0458984375,97.834228515625
-18.84375,99.16455078125
-16.3623046875,99.048583984375
-13.681640625,98.118896484375
-11.75390625,96.93212890625
-10.90234375,95.80078125
-10.7373046875,94.827392578125
-10.57421875,94.0458984375
-9.986328125,93.52978515625
-9.04296875,93.4150390625
-8.21875,93.83837890625
-8.087890625,94.869140625
-9.0439453125,96.43798828125
-11.2021484375,98.343505859375
-14.33203125,100.330078125
-17.8583984375,102.208251953125
-20.880859375,103.88916015625
-22.4736328125,105.28759765625
-22.1708984375,106.215087890625
-20.3544921875,106.408203125
-18.1357421875,105.698486328125
-16.85546875,104.157470703125
-17.3603515625,102.07373046875
-19.515625,99.756103515625
-22.2587890625,97.41259765625
-24.220703125,95.212646484375
-24.5126953125,93.436767578125
-23.259765625,92.437255859375
-21.3740234375,92.368408203125
-19.9462890625,92.996826171875
-19.6103515625,93.796875
-20.2802734375,94.31103515625
-21.298828125,94.411865234375
-21.9267578125,94.3212890625
-21.8193359375,94.409423828125
-21.2421875,94.92626953125
-20.806640625,95.8603515625
-21.0224609375,96.93798828125
-21.85546875,97.81201171875
-22.732421875,98.267333984375
-22.91796875,98.33984375
-22.044921875,98.245849609375
-20.4482421875,98.2685546875
-18.96484375,98.628173828125
-18.40625,99.37060546875
-19.076171875,100.284423828125
-20.6298828125,100.977294921875
-22.3955078125,101.1494140625
-23.84765625,100.85595703125
-24.8271484375,100.537109375
-25.4775390625,100.74462890625
-25.9853515625,101.777587890625
-26.373046875,103.46435546875
-26.3955078125,105.217529296875
-25.693359375,106.330078125
-24.0322265625,106.35986328125
-21.607421875,105.3876953125
-19.037109375,103.98486328125
-17.1728515625,102.921142578125
-16.6376953125,102.7421875
-17.4775390625,103.417724609375
-19.1552734375,104.261474609375
-20.8525390625,104.214599609375
-21.900390625,102.401123046875
-21.9873046875,98.598388671875
-21.2177734375,93.373779296875
-19.8955078125,87.857177734375
-18.37109375,83.340087890625
-16.9951171875,80.898681640625
-16.236328125,81.1240234375
-16.697265625,83.94189453125
-18.8271484375,88.521484375
-22.4482421875,93.377197265625
-26.44140625,96.804443359375
-29.0693359375,97.564208984375
-28.8857421875,95.5107421875
-25.7265625,91.718994140625
-20.9609375,87.988525390625
-16.830078125,85.9150390625
-15.2607421875,86.138427734375
-16.8837890625,88.18115234375
-20.8701171875,90.955322265625
-25.5234375,93.498291015625
-29.1103515625,95.423828125
-30.568359375,96.857421875
-29.8408203125,98.03857421875
-27.6845703125,99.01025390625
-25.2861328125,99.568359375
-23.61328125,99.46044921875
-23.001953125,98.576416015625
-23.1357421875,97.04296875
-23.3935546875,95.219970703125
-23.2998046875,93.6982421875
-22.8134765625,93.246826171875
-22.2333984375,94.566650390625
-21.908203125,97.8701171875
-21.888671875,102.46044921875
-21.845703125,106.650390625
-21.357421875,108.330322265625
-20.2451171875,106.063232421875
-18.7783203125,100.12890625
-17.439453125,92.7705078125
-16.6689453125,87.285400390625
-16.6669921875,86.4072265625
-17.4619140625,90.8662109375
-18.9267578125,98.97412109375
-20.73828125,107.4111328125
-22.3583984375,112.77490234375
-23.1767578125,113.1162109375
-22.9111328125,108.769775390625
-21.845703125,102.14404296875
-20.71875,96.5712890625
-20.2666015625,94.7431640625
-20.7294921875,97.4609375
-21.7158203125,103.26708984375
-22.53515625,109.166259765625
-22.666015625,112.05712890625
-22.009765625,110.202392578125
-20.9443359375,104.062255859375
-20.1025390625,96.08544921875
-20.095703125,89.58935546875
-21.2197265625,87.19970703125
-23.181640625,89.582275390625
-25.1162109375,95.0849609375
-25.96875,100.53955078125
-25.1650390625,102.892578125
-23.0458984375,100.805908203125
-20.8828125,95.38037109375
-20.228515625,89.5615234375
-22.0078125,86.568359375
-25.91015625,88.16845703125
-30.5126953125,93.782470703125
-34.025390625,100.882568359375
-35.240234375,106.34814453125
-34.0673828125,107.95068359375
-31.451171875,105.20263671875
-28.8193359375,99.33056640625
-27.3505859375,92.5947265625
-27.533203125,87.363037109375
-29.037109375,85.26220703125
-30.9482421875,86.666748046875
-32.259765625,90.654052734375
-32.3857421875,95.485107421875
-31.4453125,99.411376953125
-30.173828125,101.44140625
-29.4384765625,101.718017578125
-29.775390625,101.2861328125
-31.1337890625,101.423583984375
-33.0576171875,102.945556640625
-35.0419921875,105.96826171875
-36.7294921875,110.189208984375
-37.9345703125,115.40673828125
-38.482421875,121.918701171875
-38.18359375,130.684814453125
-36.9951171875,143.36328125
-35.26953125,162.245361328125
-33.7744140625,189.9560546875
-33.4541015625,228.843994140625
-34.9921875,280.2119140625
-38.458984375,343.7197265625
-43.2158203125,417.1552734375
-48.125,496.55322265625
-51.9931640625,576.64501953125
-53.9912109375,651.69384765625
-53.974609375,716.6552734375
-52.4287109375,768.3056640625
-50.26953125,805.91650390625
-48.5517578125,831.16064453125
-48.115234375,847.22607421875
-49.318359375,857.4384765625
-51.96484375,863.90185546875
-55.41796875,866.7978515625
-58.833984375,864.677734375
-61.3916015625,855.6767578125
-62.484375,838.9208984375
-61.8515625,815.3037109375
-59.82421875,787.2138671875
-57.330078125,757.58251953125
-55.5986328125,728.89013671875
-55.5712890625,702.56787109375
-57.4404296875,678.8974609375
-60.5517578125,657.29443359375
-63.806640625,636.826171875
-66.2685546875,616.71484375
-67.578125,596.58935546875
-67.9677734375,576.46484375
-67.921875,556.62060546875
-67.78515625,537.5068359375
-67.6171875,519.6171875
-67.2724609375,503.2236328125
-66.6337890625,488.0869140625
-65.7099609375,473.44873046875
-64.58203125,458.41650390625
-63.380859375,442.5234375
-62.283203125,426.08203125
-61.546875,410.14697265625
-61.35546875,396.0400390625
-61.4951171875,384.6962890625
-61.3203125,376.15380859375
-60.126953125,369.50146484375
-57.71875,363.31640625
-54.7314453125,356.32666015625
-52.41015625,347.97314453125
-51.9453125,338.6220703125
-53.7412109375,329.31787109375
-57.0849609375,321.20849609375
-60.35546875,314.87255859375
-61.896484375,309.93505859375
-60.798828125,305.22412109375
-57.2861328125,299.3935546875
-52.4833984375,291.67138671875
-47.8662109375,282.2783203125
-44.693359375,272.328857421875
-43.6376953125,263.27001953125
-44.640625,256.1474609375
-47.0576171875,251.08154296875
-49.962890625,247.246826171875
-52.4775390625,243.39404296875
-54.02734375,238.576904296875
-54.390625,232.598388671875
-53.703125,225.909423828125
-52.3369140625,219.123046875
-50.7353515625,212.569091796875
-49.3466796875,206.239013671875
-48.541015625,200.097412109375
-48.62890625,194.485595703125
-49.74609375,190.17138671875
-51.7490234375,187.91455078125
-54.0712890625,187.81787109375
-55.82421875,189.025634765625
-56.1513671875,190.094970703125
-54.712890625,189.837890625
-51.96484375,188.02001953125
-48.9931640625,185.402587890625
-46.8857421875,183.119873046875
-46.134765625,181.900146484375
-46.45703125,181.689697265625
-47.1123046875,181.823974609375
-47.541015625,181.462646484375
-47.720703125,179.919189453125
-48.0322265625,176.85009765625
-48.814453125,172.37939453125
-50.0009765625,167.1640625
-51.2421875,162.29345703125
-52.2529296875,158.903076171875
-53.1279296875,157.65576171875
-54.255859375,158.380615234375
-55.865234375,160.159912109375
-57.68359375,161.842529296875
-58.9306640625,162.6376953125
-58.7724609375,162.37646484375
-56.890625,161.298828125
-53.7314453125,159.62939453125
-50.2373046875,157.380859375
-47.306640625,154.55859375
-45.38671875,151.517822265625
-44.392578125,149.060791015625
-43.9306640625,148.089111328125
-43.6689453125,149.059814453125
-43.587890625,151.640380859375
-43.888671875,154.8017578125
-44.6484375,157.309814453125
-45.54296875,158.363037109375
-45.9365234375,158.0595703125
-45.302734375,157.35693359375
-43.734375,157.456298828125
-42.1005859375,158.910888671875
-41.529296875,161.0751953125
-42.7021484375,162.350341796875
-45.2880859375,161.185546875
-48.072265625,157.16015625
-49.66015625,151.39111328125
-49.3349609375,145.943603515625
-47.4990234375,142.675048828125
-45.41796875,142.255126953125
-44.4970703125,143.98876953125
-45.5029296875,146.419189453125
-48.3095703125,148.236572265625
-51.986328125,148.86474609375
-55.2822265625,148.46337890625
-57.1357421875,147.5087890625
-57.166015625,146.38330078125
-55.8525390625,145.216796875
-54.3017578125,143.9775390625
-53.5791015625,142.645751953125
-54.037109375,141.318603515625
-55.0693359375,140.251220703125
-55.48046875,139.820068359375
-54.3896484375,140.329345703125
-51.9375,141.705078125
-49.275390625,143.313720703125
-47.7724609375,144.1669921875
-47.94140625,143.432861328125
-49.0087890625,140.901123046875
-49.41015625,137.122802734375
-47.958984375,133.1572265625
-44.8251953125,130.095947265625
-41.5185546875,128.58935546875
-40,128.65966796875
-41.466796875,129.842041015625
-45.6064453125,131.52099609375
-50.6826171875,133.217529296875
-54.4345703125,134.72802734375
-55.2099609375,136.1376953125
-52.6982421875,137.733642578125
-47.9638671875,139.77783203125
-42.7939453125,142.21533203125
-38.9453125,144.5556640625
-37.4052734375,146.10009765625
-38.16015625,146.392333984375
-40.32421875,145.56201171875
-42.6748046875,144.241943359375
-44.322265625,143.126220703125
-45.0693359375,142.533447265625
-45.318359375,142.30126953125
-45.6494140625,142.025390625
-46.2939453125,141.443603515625
-46.9853515625,140.707763671875
-47.1337890625,140.384033203125
-46.353515625,141.15478515625
-44.8193359375,143.3916015625
-43.2568359375,146.807861328125
-42.4765625,150.46728515625
-42.908203125,153.131591796875
-44.3623046875,153.809814453125
-46.1162109375,152.209716796875
-47.3115234375,148.877197265625
-47.4013671875,144.999267578125
-46.359375,141.935302734375
-44.5888671875,140.6611328125
-42.6416015625,141.401611328125
-40.97265625,143.622802734375
-39.876953125,146.351806640625
-39.5078125,148.607666015625
-39.916015625,149.700439453125
-41.0224609375,149.2900390625
-42.607421875,147.322509765625
-44.32421875,143.97265625
-45.7119140625,139.6728515625
-46.29296875,135.12841796875
-45.80859375,131.265380859375
-44.4169921875,129.016845703125
-42.7294921875,129.027587890625
-41.498046875,131.302001953125
-41.2412109375,135.01708984375
-42.02734375,138.704345703125
-43.60546875,140.8525390625
-45.6318359375,140.637939453125
-47.7880859375,138.343505859375
-49.7939453125,135.168212890625
-51.3408203125,132.5380859375
-52.1259765625,131.35546875
-51.9482421875,131.641357421875
-50.8603515625,132.736328125
-49.3037109375,133.89794921875
-48.0068359375,134.810791015625
-47.626953125,135.677490234375
-48.32421875,136.876220703125
-49.6376953125,138.50341796875
-50.796875,140.13916015625
-51.2421875,140.989990234375
-50.951171875,140.320556640625
-50.43359375,137.936767578125
-50.3466796875,134.435546875
-51.0546875,131.008056640625
-52.341796875,128.873046875
-53.4599609375,128.6162109375
-53.4345703125,129.857177734375
-51.6572265625,131.448974609375
-48.2587890625,132.08984375
-44.197265625,130.998046875
-40.919921875,128.277587890625
-39.7451171875,124.763427734375
-41.3369140625,121.51611328125
-45.37109375,119.277099609375
-50.6005859375,118.2568359375
-55.3154296875,118.31298828125
-58.0029296875,119.28271484375
-57.9482421875,121.147705078125
-55.5673828125,123.9326171875
-52.21484375,127.455322265625
-49.5625,131.13232421875
-48.8525390625,134.038330078125
-50.3681640625,135.217041015625
-53.4306640625,134.14990234375
-56.83203125,131.104736328125
-59.3232421875,127.120361328125
-60.1005859375,123.591796875
-58.9814453125,121.6552734375
-56.451171875,121.703125
-53.453125,123.23974609375
-51.0654296875,125.1279296875
-50.0537109375,126.09716796875
-50.5205078125,125.317138671875
-51.8046875,122.845703125
-52.78515625,119.688720703125
-52.548828125,117.39794921875
-50.9453125,117.310791015625
-48.6455078125,119.81396484375
-46.7001953125,124.0732421875
-45.8818359375,128.45458984375
-46.240234375,131.42578125
-47.138671875,132.342041015625
-47.6162109375,131.618408203125
-46.958984375,130.23876953125
-45.1328125,129.065673828125
-42.8681640625,128.40576171875
-41.2548828125,128.10009765625
-41.1982421875,127.9052734375
-42.94140625,127.74658203125
-45.9013671875,127.64501953125
-48.8623046875,127.45751953125
-50.5009765625,126.8271484375
-50.0576171875,125.46875
-47.7998046875,123.533447265625
-44.91015625,121.652099609375
-42.822265625,120.565185546875
-42.4443359375,120.5703125
-43.7978515625,121.2568359375
-46.1611328125,121.70166015625
-48.5224609375,120.99951171875
-50.0439453125,118.755126953125
-50.3115234375,115.3134765625
-49.412109375,111.60888671875
-47.8173828125,108.74072265625
-46.16796875,107.447021484375
-45.01171875,107.7568359375
-44.6533203125,109.0458984375
-45.1025390625,110.4501953125
-46.1611328125,111.369873046875
-47.5185546875,111.744384765625
-48.7939453125,111.976318359375
-49.537109375,112.59423828125
-49.2939453125,113.890380859375
-47.76953125,115.69287109375
-45.087890625,117.3583984375
-41.919921875,118.014892578125
-39.349609375,117
-38.455078125,114.33251953125
-39.8037109375,110.931640625
-43.1572265625,108.3759765625
-47.515625,108.23095703125
-51.470703125,111.266357421875
-53.7578125,116.96435546875
-53.6708984375,123.610107421875
-51.29296875,129.0078125
-47.5205078125,131.45361328125
-43.73828125,130.473876953125
-41.373046875,126.9228515625
-41.314453125,122.475830078125
-43.533203125,118.847412109375
-47.1123046875,117.13232421875
-50.6884765625,117.515380859375
-53.080078125,119.34228515625
-53.74609375,121.502685546875
-52.869140625,122.944580078125
-51.1494140625,123.143798828125
-49.4306640625,122.31884765625
-48.3173828125,121.3037109375
-47.9931640625,121.107177734375
-48.2197265625,122.38134765625
-48.498046875,125.029541015625
-48.373046875,128.161865234375
-47.619140625,130.408935546875
-46.3212890625,130.56494140625
-44.79296875,128.220947265625
-43.4111328125,124.08251953125
-42.4580078125,119.68017578125
-42.1201171875,116.573974609375
-42.4306640625,115.5517578125
-43.2607421875,116.316162109375
-44.1787109375,117.853271484375
-44.4384765625,119.175537109375
-43.2216796875,119.9384765625
-40.1318359375,120.49462890625
-35.5625,121.42822265625
-30.8427734375,122.951904296875
-27.7998046875,124.66162109375
-27.9736328125,125.766845703125
-31.7421875,125.55224609375
-37.8671875,123.748291015625
-43.8701171875,120.629150390625
-47.1376953125,116.89990234375
-46.2275390625,113.449462890625
-41.6201171875,111.052490234375
-35.55859375,110.12255859375
-30.904296875,110.610595703125
-29.7490234375,112.072509765625
-32.4404296875,113.90234375
-37.5458984375,115.6025390625
-42.775390625,116.98046875
-46.041015625,118.1201171875
-46.2607421875,119.177978515625
-43.5341796875,120.1728515625
-38.9365234375,120.93212890625
-34.1103515625,121.231201171875
-30.6796875,121.00634765625
-29.6650390625,120.4853515625
-31.154296875,120.135009765625
-34.3115234375,120.426025390625
-37.83984375,121.535888671875
-40.5869140625,123.162353515625
-41.962890625,124.56005859375
-41.974609375,124.822265625
-40.9501953125,123.3134765625
-39.32421875,120.04345703125
-37.626953125,115.766357421875
-36.4755859375,111.716064453125
-36.4130859375,109.107666015625
-37.5673828125,108.596435546875
-39.44921875,109.956298828125
-41.0947265625,112.128173828125
-41.64453125,113.665283203125
-40.892578125,113.37255859375
-39.40234375,110.83056640625
-38.0439453125,106.558837890625
-37.4560546875,101.77587890625
-37.71875,97.928466796875
-38.5556640625,96.164794921875
-39.75390625,96.943603515625
-41.3896484375,99.893310546875
-43.6162109375,103.978515625
-46.23046875,107.945556640625
-48.4619140625,110.832763671875
-49.2578125,112.321044921875
-47.9541015625,112.75830078125
-44.8291015625,112.8388671875
-41.15625,113.14306640625
-38.6162109375,113.804931640625
-38.4326171875,114.560302734375
-40.6748046875,115.100341796875
-44.1337890625,115.393310546875
-46.876953125,115.715576171875
-47.2265625,116.381103515625
-44.6630859375,117.46484375
-40.146484375,118.725830078125
-35.572265625,119.764404296875
-32.703125,120.250732421875
-32.2890625,120.056396484375
-33.7744140625,119.265625
-35.7802734375,118.08837890625
-36.900390625,116.761474609375
-36.5009765625,115.470703125
-34.9892578125,114.36767578125
-33.6123046875,113.652587890625
-33.720703125,113.655029296875
-36.0087890625,114.779296875
-40.09765625,117.296630859375
-44.6845703125,121.035400390625
-48.1806640625,125.148681640625
-49.4111328125,128.248779296875
-48.1162109375,129.006103515625
-45.0234375,126.98974609375
-41.4853515625,123.1904296875
-38.9111328125,119.815185546875
-38.2021484375,119.276123046875
-39.427734375,122.84130859375
-41.9375,129.78955078125
-44.689453125,137.642578125
-46.6923828125,143.409423828125
-47.3671875,145.072021484375
-46.6640625,142.47314453125
-44.9638671875,137.185302734375
-42.8623046875,131.58837890625
-41.0458984375,127.6953125
-40.166015625,126.337646484375
-40.7431640625,127.044921875
-42.9345703125,128.577880859375
-46.3212890625,129.714599609375
-49.828125,129.82275390625
-52.1005859375,128.959716796875
-52.1201171875,127.56494140625
-49.779296875,126.04150390625
-46.0322265625,124.5126953125
-42.4189453125,122.828125
-40.2744140625,120.82763671875
-40.1630859375,118.626953125
-41.7294921875,116.747802734375
-44.02734375,115.887939453125
-46.0419921875,116.443115234375
-47.1220703125,118.08984375
-47.12890625,119.76416015625
-46.453125,120.14453125
-45.736328125,118.37109375
-45.5673828125,114.555908203125
-46.1904296875,109.75341796875
-47.34765625,105.4443359375
-48.4658203125,102.88330078125
-49.0283203125,102.634765625
-48.98046875,104.453125
-48.7685546875,107.4453125
-49.0087890625,110.4228515625
-49.9912109375,112.347900390625
-51.349609375,112.697998046875
-52.212890625,111.587158203125
-51.73046875,109.583251953125
-49.783203125,107.378662109375
-47.181640625,105.45556640625
-45.2021484375,103.891357421875
-44.716796875,102.356201171875
-45.5546875,100.343017578125
-46.587890625,97.547607421875
-46.560546875,94.155029296875
-44.986328125,90.838623046875
-42.5634765625,88.482177734375
-40.7822265625,87.829345703125
-40.94921875,89.1943359375
-43.3505859375,92.30810546875
-47.0498046875,96.295654296875
-50.43359375,99.824462890625
-52.1376953125,101.52587890625
-51.681640625,100.537841796875
-49.5556640625,96.90283203125
-46.7919921875,91.60693359375
-44.5048828125,86.2353515625
-43.52734375,82.37939453125
-44.1513671875,81.00439453125
-46.0107421875,82.0205078125
-48.154296875,84.282958984375
-49.3232421875,86.11181640625
-48.5517578125,86.114990234375
-45.66796875,83.900146484375
-41.5517578125,80.26318359375
-37.810546875,76.73291015625
-36.150390625,74.724365234375
-37.5859375,74.763671875
-41.974609375,76.21728515625
-48.0048828125,77.666015625
-53.7841796875,77.694091796875
-57.6904296875,75.641845703125
-59.0126953125,71.87841796875
-58.0400390625,67.50439453125
-55.654296875,63.747802734375
-52.822265625,61.501708984375
-50.318359375,61.201171875
-48.6337890625,62.923583984375
-48.021484375,66.404541015625
-48.52734375,70.954833984375
-49.9951171875,75.461669921875
-51.9794921875,78.636474609375
-53.81640625,79.499267578125
-54.7294921875,77.85400390625
-54.20703125,74.499755859375
-52.2919921875,70.995361328125
-49.5947265625,68.99072265625
-47.056640625,69.46875
-45.544921875,72.32568359375
-45.5166015625,76.47412109375
-46.8720703125,80.346923828125
-48.9208984375,82.513671875
-50.6943359375,82.187255859375
-51.4140625,79.509521484375
-50.9736328125,75.51123046875
-49.9814453125,71.7685546875
-49.369140625,69.8291015625
-49.771484375,70.647705078125
-51.177734375,74.253173828125
-52.939453125,79.74755859375
-54.1171875,85.5947265625
-53.841796875,90.114501953125
-51.7197265625,92.123046875
-48.169921875,91.543701171875
-44.5888671875,89.702392578125
-43.0380859375,89.072265625
-45.4853515625,92.408203125
-52.8876953125,101.58837890625
-64.56640625,116.643798828125
-78.302734375,135.51318359375
-91.0947265625,154.7333984375
-100.34765625,170.740966796875
-104.7822265625,181.13720703125
-104.720703125,185.345458984375
-101.6904296875,184.460693359375
-97.6865234375,180.5546875
-94.5,175.778564453125
-93.2744140625,171.637939453125
-94.2880859375,168.6787109375
-96.8388671875,166.617431640625
-99.486328125,164.79541015625
-100.6357421875,162.729736328125
-99.451171875,160.520263671875
-96.3525390625,158.83349609375
-92.908203125,158.44091796875
-91.041015625,159.61181640625
-92.0751953125,161.87548828125
-96.048828125,164.33740234375
-101.623046875,166.29931640625
-106.5791015625,167.66259765625
-108.7646484375,168.80908203125
-107.052734375,170.1103515625
-101.958984375,171.4794921875
-95.5185546875,172.34716796875
-90.423828125,172.093994140625
-88.8173828125,170.5615234375
-91.24609375,168.1953125
-96.421875,165.7666015625
-101.953125,163.956298828125
-105.5546875,163.13232421875
-106.1572265625,163.43701171875
-104.25390625,164.98193359375
-101.3671875,167.88134765625
-99.1357421875,172.012939453125
-98.53515625,176.700439453125
-99.58203125,180.66015625
-101.6025390625,182.436279296875
-103.6591796875,181.16943359375
-104.970703125,177.20361328125
-105.185546875,172.0986328125
-104.4111328125,167.9287109375
-103.08984375,166.224365234375
-101.6591796875,167.18701171875
-100.439453125,169.613037109375
-99.6103515625,171.625732421875
-99.3173828125,171.752197265625
-99.6640625,169.719482421875
-100.6552734375,166.5439453125
-102.109375,163.884765625
-103.7333984375,163.0458984375
-105.2333984375,164.20654296875
-106.423828125,166.364501953125
-107.2177734375,168.04541015625
-107.6494140625,168.335205078125
-107.7470703125,167.5009765625
-107.4765625,166.7490234375
-106.75390625,167.335693359375
-105.5322265625,169.618896484375
-103.9208984375,172.720458984375
-102.0947265625,175.009765625
-100.16796875,175.119384765625
-98.12890625,172.85107421875
-95.9619140625,169.4072265625
-93.82421875,166.766845703125
-92.142578125,166.64453125
-91.4833984375,169.61962890625
-92.2998046875,174.956298828125
-94.671875,181.088134765625
-98.171875,186.385498046875
-101.900390625,189.715087890625
-104.802734375,190.58935546875
-106.1357421875,189.054443359375
-105.8212890625,185.514404296875
-104.3759765625,180.56591796875
-102.498046875,174.914306640625
-100.6845703125,169.39990234375
-99.1044921875,165.048583984375
-97.8544921875,162.91552734375
-97.109375,163.623291015625
-97.076171875,166.886474609375
-97.744140625,171.416015625
-98.7265625,175.453369140625
-99.375,177.666015625
-99.142578125,177.808349609375
-97.970703125,176.73046875
-96.2734375,175.696044921875
-94.6982421875,175.501708984375
-93.7412109375,175.95947265625
-93.55859375,176.097412109375
-94.0546875,174.866455078125
-95.0458984375,171.88671875
-96.3798828125,167.743408203125
-97.888671875,163.69091796875
-99.3095703125,161.036376953125
-100.2822265625,160.599365234375
-100.4716796875,162.48046875
-99.7783203125,166.097900390625
-98.52734375,170.337158203125
-97.3984375,173.791748046875
-97.1845703125,175.151611328125
-98.3408203125,173.708984375
-100.6689453125,169.769287109375
-103.2314453125,164.62060546875
-104.681640625,160.008056640625
-103.841796875,157.343505859375
-100.3125,157.132568359375
-94.7802734375,158.906494140625
-88.822265625,161.66943359375
-84.322265625,164.501708984375
-82.7822265625,166.945556640625
-84.7646484375,168.9677734375
-89.6787109375,170.627197265625
-95.921875,171.74267578125
-101.3974609375,171.818115234375
-104.3095703125,170.319580078125
-103.935546875,167.111328125
-100.9033203125,162.7080078125
-96.9150390625,158.127685546875
-93.958984375,154.462646484375
-93.4091796875,152.44091796875
-95.5673828125,152.193359375
-99.5908203125,153.29736328125
-103.9443359375,155.00927734375
-107.07421875,156.592529296875
-108.080078125,157.5537109375
-107.013671875,157.712646484375
-104.796875,157.07177734375
-102.6982421875,155.627197265625
-101.734375,153.29931640625
-102.21875,150.0302734375
-103.7626953125,146.0029296875
-105.6171875,141.79638671875
-107.1357421875,138.2880859375
-108.04296875,136.27783203125
-108.4306640625,136.05126953125
-108.546875,137.22314453125
-108.5751953125,138.97900390625
-108.4541015625,140.572265625
-107.984375,141.684326171875
-106.958984375,142.4228515625
-105.310546875,143.048828125
-103.2587890625,143.668212890625
-101.314453125,144.092041015625
-100.1162109375,143.92431640625
-100.1240234375,142.788818359375
-101.265625,140.584716796875
-102.8310546875,137.599853515625
-103.8828125,134.43408203125
-103.875,131.781982421875
-103.0322265625,130.182861328125
-102.154296875,129.7861328125
-102.009765625,130.212158203125
-102.76171875,130.64306640625
-103.82421875,130.23974609375
-104.2392578125,128.719970703125
-103.34765625,126.6552734375
-101.2744140625,125.166015625
-98.8173828125,125.127197265625
-96.912109375,126.47119140625
-96.0703125,128.13037109375
-96.1806640625,128.6552734375
-96.7373046875,127.10986328125
-97.3134765625,123.724853515625
-97.8271484375,119.900634765625
-98.369140625,117.497802734375
-98.8447265625,117.776611328125
-98.822265625,120.692626953125
-97.72265625,124.949462890625
-95.28125,128.74365234375
-91.84765625,130.668212890625
-88.3310546875,130.3134765625
-85.72265625,128.317626953125
-84.4931640625,125.941162109375
-84.30859375,124.402099609375
-84.2265625,124.302001953125
-83.39453125,125.411376953125
-81.63671875,126.865478515625
-79.619140625,127.645263671875
-78.41796875,127.074951171875
-78.8564453125,125.118408203125
-80.888671875,122.382080078125
-83.5703125,119.84521484375
-85.5029296875,118.451904296875
-85.5869140625,118.707275390625
-83.6123046875,120.388427734375
-80.3505859375,122.528564453125
-77.1708984375,123.71630859375
-75.39453125,122.671142578125
-75.7763671875,118.857421875
-78.234375,112.888427734375
-81.986328125,106.462646484375
-85.830078125,101.74853515625
-88.5703125,100.444580078125
-89.3720703125,103.048583984375
-88.1611328125,108.6875
-85.7119140625,115.546630859375
-83.373046875,121.561767578125
-82.4814453125,125.09765625
-83.7216796875,125.421142578125
-86.849609375,122.837646484375
-90.76171875,118.473388671875
-93.9794921875,113.803466796875
-95.306640625,110.12353515625
-94.28125,108.152587890625
-91.2490234375,107.894775390625
-87.1494140625,108.816162109375
-83.224609375,110.2666015625
-80.7529296875,111.856201171875
-80.7587890625,113.46435546875
-83.62890625,114.92041015625
-88.8212890625,115.68505859375
-94.900390625,114.921142578125
-99.970703125,112.004638671875
-102.400390625,107.16259765625
-101.53515625,101.7109375
-97.923828125,97.626708984375
-93.05078125,96.587646484375
-88.6650390625,99.059326171875
-85.9619140625,103.938720703125
-85.2236328125,109.001220703125
-85.919921875,111.9501953125
-87.234375,111.55859375
-88.533203125,108.276611328125
-89.5693359375,103.9658203125
-90.3193359375,100.88671875
-90.7958984375,100.518798828125
-90.8916015625,102.87109375
-90.40234375,106.6474609375
-89.1748046875,110.13671875
-87.2783203125,112.1923828125
-85.1044921875,112.7578125
-83.2958984375,112.65380859375
-82.439453125,112.89013671875
-82.84375,113.98095703125
-84.3798828125,115.69921875
-86.51171875,117.361572265625
-88.517578125,118.344970703125
-89.716796875,118.465087890625
-89.75390625,118.033935546875
-88.74609375,117.633544921875
-87.22265625,117.782470703125
-85.88671875,118.675048828125
-85.3251953125,120.110595703125
-85.8349609375,121.6318359375
-87.2705078125,122.713623046875
-88.931640625,122.80810546875
-89.5048828125,121.246337890625
-87.44140625,117.218505859375
-81.578125,110.096923828125
-71.9326171875,100.02197265625
-60.1005859375,88.302978515625
-48.8994140625,77.146728515625
-41.310546875,68.744140625
-39.150390625,64.2607421875
-42.2060546875,63.401123046875
-48.2578125,64.82958984375
-54.1015625,67.041748046875
-57.0517578125,69.099609375
-56.0888671875,70.820556640625
-52.171875,72.45947265625
-47.498046875,74.256591796875
-44.26953125,76.16943359375
-43.59765625,77.92138671875
-45.17578125,79.20654296875
-47.7822265625,79.837890625
-50.2001953125,79.782958984375
-51.9091796875,79.161865234375
-53.248046875,78.309814453125
-54.9296875,77.799560546875
-57.3828125,78.23388671875
-60.3369140625,79.882080078125
-62.8896484375,82.420654296875
-64.052734375,85.025390625
-63.23828125,86.753662109375
-60.65625,86.950927734375
-57.2119140625,85.440673828125
-54.181640625,82.4609375
-52.625,78.504638671875
-52.90625,74.177490234375
-54.48046875,70.078125
-56.279296875,66.69921875
-57.3837890625,64.41064453125
-57.6044921875,63.5
-57.59765625,64.185546875
-58.302734375,66.450439453125
-60.22265625,69.78955078125
-62.865234375,73.14208984375
-65.0009765625,75.197998046875
-65.4521484375,74.96826171875
-63.955078125,72.302978515625
-61.4189453125,68.04443359375
-59.51171875,63.785888671875
-59.6474609375,61.250732421875
-62.0908203125,61.5009765625
-65.693359375,64.33837890625
-68.4501953125,68.322265625
-68.6123046875,71.4794921875
-65.5830078125,72.35595703125
-60.2294921875,70.807861328125
-54.4130859375,68.076171875
-50.064453125,66.06591796875
-48.2822265625,66.174560546875
-48.888671875,68.334716796875
-50.73046875,70.955810546875
-52.4130859375,71.820068359375
-53.01171875,69.4248046875
-52.4267578125,63.88916015625
-51.212890625,56.94287109375
-50.16796875,51.056640625
-49.87890625,48.271240234375
-50.45703125,49.263427734375
-51.62890625,53.0380859375
-52.94140625,57.324462890625
-54.0537109375,59.517822265625
-54.84375,57.8369140625
-55.4189453125,52.220947265625
-55.8916015625,44.4912109375
-56.2421875,37.5927734375
-56.30859375,34.259033203125
-55.9150390625,35.76416015625
-54.998046875,41.37890625
-53.6533203125,48.735595703125
-52.142578125,54.957275390625
-50.845703125,57.906494140625
-50.140625,56.9560546875
-50.16796875,52.939208984375
-50.677734375,47.550048828125
-51.099609375,42.62353515625
-50.8056640625,39.593994140625
-49.57421875,39.181640625
-47.7900390625,41.248046875
-46.2958984375,44.87255859375
-45.8935546875,48.670654296875
-46.8212890625,51.295654296875
-48.607421875,51.971923828125
-50.3447265625,50.829345703125
-51.251953125,48.885986328125
-51.1240234375,47.620849609375
-50.3740234375,48.313232421875
-49.734375,51.43896484375
-49.787109375,56.462158203125
-50.7529296875,62.098388671875
-52.4462890625,66.849853515625
-54.4365234375,69.52490234375
-56.197265625,69.58349609375
-57.2119140625,67.28564453125
-57.099609375,63.6435546875
-55.744140625,60.095458984375
-53.4833984375,57.973388671875
-51.080078125,57.940673828125
-49.4248046875,59.75390625
-49.0498046875,62.487060546875
-49.8046875,65.097900390625
-50.9443359375,66.980224609375
-51.615234375,68.15966796875
-51.4375,69.03173828125
-50.8779296875,69.870361328125
-51.0400390625,70.470703125
-52.884765625,70.217529296875
-56.353515625,68.572509765625
-60.138671875,65.60888671875
-62.2607421875,62.208740234375
-61.2861328125,59.70458984375
-57.2119140625,59.19677734375
-51.5908203125,60.94970703125
-46.69140625,64.23095703125
-44.283203125,67.671875
-44.751953125,69.935791015625
-46.982421875,70.318115234375
-49.181640625,68.965576171875
-49.9423828125,66.64111328125
-48.8818359375,64.190673828125
-46.6357421875,62.034423828125
-44.205078125,59.99658203125
-42.279296875,57.556884765625
-40.9326171875,54.396240234375
-39.841796875,50.83056640625
-38.767578125,47.8388671875
-37.8681640625,46.619140625
-37.5703125,47.951171875
-38.19921875,51.740478515625
-39.62890625,56.976318359375
-41.2802734375,62.056640625
-42.4384765625,65.3505859375
-42.5908203125,65.77783203125
-41.6455078125,63.1513671875
-39.9111328125,58.16015625
-37.9013671875,52.068359375
-36.2314453125,46.3251953125
-35.46875,42.2412109375
-35.990234375,40.705078125
-37.779296875,41.93798828125
-40.2626953125,45.352783203125
-42.478515625,49.689453125
-43.5146484375,53.460205078125
-42.9921875,55.547607421875
-41.263671875,55.630859375
-39.1845703125,54.205078125
-37.5341796875,52.237060546875
-36.6650390625,50.61474609375
-36.470703125,49.720947265625
-36.6923828125,49.2958984375
-37.19921875,48.69873046875
-37.9482421875,47.360595703125
-38.896484375,45.1474609375
-39.81640625,42.35107421875
-40.3095703125,39.382568359375
-40.0185546875,36.4833984375
-38.8720703125,33.741455078125
-37.2470703125,31.361083984375
-35.8681640625,29.892822265625
-35.3974609375,30.08349609375
-36.0625,32.34765625
-37.4736328125,36.20166015625
-38.9091796875,40.187255859375
-39.720703125,42.463134765625
-39.6767578125,41.7763671875
-38.9736328125,38.227294921875
-38.0107421875,33.389892578125
-37.1376953125,29.603515625
-36.5078125,28.76953125
-36.16015625,31.322021484375
-36.173828125,35.956298828125
-36.6943359375,40.333740234375
-37.7373046875,42.305908203125
-38.9580078125,40.957275390625
-39.69921875,36.94580078125
-39.376953125,32.043701171875
-37.9658203125,28.239990234375
-36.12109375,26.87548828125
-34.771484375,28.210205078125
-34.568359375,31.5341796875
-35.482421875,35.65966796875
-36.9453125,39.4169921875
-38.2177734375,41.93017578125
-38.828125,42.6748046875
-38.80078125,41.541015625
-38.5986328125,38.96142578125
-38.8408203125,35.90380859375
-39.830078125,33.5478515625
-41.3720703125,32.77001953125
-42.818359375,33.726318359375
-43.4072265625,35.803955078125
-42.673828125,37.9482421875
-40.72265625,39.149169921875
-38.228515625,38.8388671875
-36.048828125,37.059326171875
-34.830078125,34.412353515625
-34.6904296875,31.851318359375
-35.310546875,30.340576171875
-36.19921875,30.44384765625
-36.98046875,31.9931640625
-37.564453125,34.084716796875
-38.01953125,35.472412109375
-38.4990234375,35.22705078125
-39.1396484375,33.276611328125
-40.037109375,30.52197265625
-41.185546875,28.425048828125
-42.4443359375,28.2431640625
-43.5654296875,30.364013671875
-44.2666015625,34.079345703125
-44.39453125,37.998291015625
-44.0908203125,40.760986328125
-43.771484375,41.638427734375
-43.8779296875,40.714111328125
-44.5537109375,38.68310546875
-45.5234375,36.486328125
-46.228515625,34.972900390625
-46.123046875,34.689697265625
-44.98828125,35.81298828125
-42.9765625,38.18017578125
-40.5380859375,41.345947265625
-38.1875,44.7197265625
-36.3056640625,47.753662109375
-35.0927734375,50.144287109375
-34.5908203125,51.899658203125
-34.72265625,53.19287109375
-35.37890625,54.088134765625
-36.4248046875,54.376220703125
-37.7919921875,53.6806640625
-39.5009765625,51.832275390625
-41.6337890625,49.259521484375
-44.1494140625,47.038330078125
-46.6669921875,46.436279296875
-48.4150390625,48.158447265625
-48.5244140625,51.8125
-46.623046875,55.946044921875
-43.220703125,58.728515625
-39.638671875,58.87744140625
-37.357421875,56.331787109375
-37.2646484375,52.324951171875
-39.1904296875,48.77490234375
-42.140625,47.34130859375
-44.9482421875,48.66796875
-46.892578125,52.200927734375
-47.94921875,56.596435546875
-48.49609375,60.3779296875
-48.7861328125,62.46875
-48.6298828125,62.470458984375
-47.4873046875,60.695068359375
-45.0107421875,58.017578125
-41.5234375,55.58935546875
-38.1494140625,54.471435546875
-36.2353515625,55.258056640625
-36.599609375,57.800537109375
-39.015625,61.15087890625
-42.296875,63.82275390625
-44.84375,64.383544921875
-45.4384765625,62.20068359375
-43.80859375,57.96044921875
-40.7548828125,53.577880859375
-37.7158203125,51.40087890625
-35.99609375,53.02880859375
-36.1337890625,58.332763671875
-37.75390625,65.301513671875
-39.9462890625,70.99755859375
-41.80078125,73.17333984375
-42.8251953125,71.599609375
-43.0107421875,68.337890625
-42.662109375,66.923828125
-42.2587890625,71.058837890625
-42.2880859375,83.519775390625
-43.232421875,105.619140625
-45.4111328125,137.2421875
-48.66796875,177.35107421875
-52.1630859375,224.74658203125
-54.515625,278.7265625
-54.4580078125,339.2431640625
-51.6455078125,406.38232421875
-47.0009765625,479.3798828125
-42.3291015625,555.64599609375
-39.3369140625,630.4306640625
-38.7373046875,697.5244140625
-39.974609375,750.86376953125
-41.6806640625,786.32080078125
-42.462890625,802.83935546875
-41.6513671875,802.45068359375
-39.5234375,789.39111328125
-37.044921875,768.75537109375
-35.296875,745.12939453125
-34.94140625,721.51708984375
-35.96484375,698.89404296875
-37.7392578125,676.5107421875
-39.412109375,652.775390625
-40.3779296875,626.32177734375
-40.55859375,596.7744140625
-40.3173828125,564.95458984375
-40.078125,532.57763671875
-39.990234375,501.68994140625
-39.9169921875,474.07080078125
-39.67578125,450.69482421875
-39.3828125,431.40673828125
-39.3828125,414.9921875
-39.9912109375,399.8134765625
-41.0966796875,384.75
-42.103515625,369.89794921875
-42.212890625,356.4580078125
-40.8798828125,345.78125
-38.16015625,338.25830078125
-34.7265625,332.8369140625
-31.5849609375,327.53857421875
-29.6337890625,320.5673828125
-29.3330078125,311.302734375
-30.4736328125,300.54638671875
-32.23046875,289.96923828125
-33.4697265625,281.115234375
-33.25390625,274.6298828125
-31.35546875,270.107421875
-28.4052734375,266.51416015625
-25.5908203125,262.818359375
-24.0361328125,258.45166015625
-24.1630859375,253.43212890625
-25.4833984375,248.1826171875
-26.9033203125,243.21728515625
-27.408203125,238.87890625
-26.5986328125,235.20166015625
-24.83203125,231.91943359375
-22.833984375,228.52587890625
-21.1845703125,224.44140625
-20.0146484375,219.3212890625
-19.1318359375,213.38916015625
-18.41015625,207.5693359375
-18.11328125,203.15234375
-18.8623046875,201.0498046875
-21.22265625,201.0712890625
-25.1552734375,201.77587890625
-29.771484375,201.12451171875
-33.6162109375,197.6357421875
-35.4384765625,191.287109375
-34.84765625,183.580078125
-32.5732421875,176.7138671875
-30.025390625,172.37646484375
-28.5615234375,170.85986328125
-28.8173828125,170.9990234375
-30.576171875,170.92529296875
-33.0703125,169.147705078125
-35.5126953125,165.270751953125
-37.4267578125,160.0205078125
-38.6435546875,154.71044921875
-39.1259765625,150.53369140625
-38.8251953125,148.030517578125
-37.7333984375,146.939208984375
-35.9990234375,146.4736328125
-34.009765625,145.829345703125
-32.2900390625,144.60595703125
-31.294921875,142.89892578125
-31.2626953125,141.13427734375
-32.1064453125,139.774169921875
-33.4951171875,139.01904296875
-34.986328125,138.5537109375
-36.193359375,137.52734375
-36.9609375,134.872802734375
-37.3798828125,129.95947265625
-37.72265625,123.182373046875
-38.2001953125,116.03369140625
-38.78125,110.507080078125
-39.1455078125,108.12841796875
-38.81640625,109.196533203125
-37.5458984375,112.635009765625
-35.580078125,116.51708984375
-33.634765625,118.9462890625
-32.505859375,118.796630859375
-32.5810546875,115.9599609375
-33.5517578125,111.1240234375
-34.6455078125,105.368408203125
-35.150390625,99.8505859375
-34.890625,95.611083984375
-34.3251953125,93.333251953125
-34.2099609375,93.079833984375
-34.9833984375,94.213623046875
-36.3056640625,95.69189453125
-37.1181640625,96.6083984375
-36.2666015625,96.67138671875
-33.2978515625,96.299072265625
-28.8515625,96.292236328125
-24.435546875,97.17919921875
-21.6484375,98.57958984375
-21.404296875,99.096923828125
-23.5849609375,96.98828125
-27.2001953125,91.31494140625
-30.9169921875,82.717041015625
-33.63671875,73.255126953125
-34.87890625,65.39892578125
-34.822265625,60.794189453125
-34.05078125,59.551025390625
-33.140625,60.412353515625
-32.3984375,61.625732421875
-31.80078125,61.93212890625
-31.1005859375,61.0126953125
-30.01171875,59.26220703125
-28.4189453125,57.220703125
-26.53125,55.16943359375
-24.912109375,53.1064453125
-24.3349609375,50.96044921875
-25.4326171875,48.742919921875
-28.345703125,46.54150390625
-32.5302734375,44.433837890625
-36.884765625,42.484619140625
-40.0966796875,40.814453125
-41.2021484375,39.623291015625
-40.099609375,39.111328125
-37.6357421875,39.351318359375
-35.240234375,40.18798828125
-34.1328125,41.278076171875
-34.6787109375,42.24560546875
-36.162109375,42.89501953125
-37.2099609375,43.31689453125
-36.5361328125,43.805908203125
-33.7373046875,44.62939453125
-29.67578125,45.82177734375
-26.1298828125,47.14501953125
-24.890625,48.216796875
-26.7587890625,48.7490234375
-30.9609375,48.72900390625
-35.470703125,48.45458984375
-38.0341796875,48.342041015625
-37.451171875,48.683349609375
-34.244140625,49.54150390625
-30.439453125,50.794189453125
-28.4384765625,52.236572265625
-29.625,53.58984375
-33.5400390625,54.428955078125
-38.0546875,54.173828125
-40.6279296875,52.302978515625
-39.7724609375,48.74609375
-35.9267578125,44.2265625
-31.1435546875,40.205078125
-27.9248046875,38.328369140625
-27.8974609375,39.60693359375
-31.029296875,43.7861328125
-35.8115234375,49.321533203125
-40.119140625,54.0234375
-42.28515625,56.0908203125
-41.7333984375,54.9794921875
-38.9970703125,51.61181640625
-35.2314453125,47.850830078125
-31.51953125,45.518310546875
-28.5615234375,45.510986328125
-26.5830078125,47.426025390625
-25.57421875,49.88916015625
-25.43359375,51.40380859375
-26.0244140625,51.248046875
-27.1064453125,49.906005859375
-28.2568359375,48.729248046875
-28.9296875,48.9794921875
-28.654296875,50.8525390625
-27.3134765625,53.189453125
-25.2939453125,54.173583984375
-23.3876953125,52.586669921875
-22.4404296875,48.76171875
-22.953125,44.55517578125
-24.8408203125,42.263427734375
-27.4423828125,43.138671875
-29.7958984375,46.5400390625
-31.0478515625,50.294677734375
-30.9111328125,52.072265625
-29.8720703125,50.833740234375
-28.9775390625,47.435546875
-29.298828125,44.017578125
-31.2548828125,42.709228515625
-34.326171875,44.48388671875
-37.2216796875,48.780517578125
-38.541015625,53.943603515625
-37.4716796875,58.083251953125
-34.2099609375,59.91552734375
-29.8828125,59.205810546875
-25.998046875,56.697509765625
-23.7705078125,53.603271484375
-23.615234375,51.047607421875
-25.06640625,49.7431640625
-27.169921875,50.02099609375
-29.0400390625,51.987060546875
-30.34765625,55.535888671875
-31.357421875,60.18798828125
-32.6103515625,64.963623046875
-34.4365234375,68.574951171875
-36.619140625,69.974853515625
-38.3818359375,68.935546875
-38.7607421875,66.250244140625
-37.126953125,63.293701171875
-33.611328125,61.21484375
-29.13671875,60.290771484375
-25.0517578125,59.90673828125
-22.55859375,59.128662109375
-22.201171875,57.42138671875
-23.6796875,55.038330078125
-26.0634765625,52.873291015625
-28.3564453125,51.9638671875
-30.11328125,52.958984375
-31.6923828125,55.8427734375
-33.9345703125,59.984375
-37.359375,64.44580078125
-41.5390625,68.397216796875
-45.1025390625,71.447509765625
-46.501953125,73.723388671875
-44.9716796875,75.60888671875
-41.048828125,77.270751953125
-36.3193359375,78.3740234375
-32.65625,78.220458984375
-31.330078125,76.27490234375
-32.5244140625,72.6787109375
-35.40234375,68.398681640625
-38.623046875,64.896484375
-41.03125,63.50830078125
-42.078125,64.85009765625
-41.8349609375,68.556884765625
-40.7470703125,73.45947265625
-39.306640625,78.12890625
-37.9111328125,81.506103515625
-36.7802734375,83.30078125
-36.0654296875,83.93896484375
-35.849609375,84.174072265625
-36.16796875,84.622314453125
-36.9462890625,85.486083984375
-37.9169921875,86.551513671875
-38.66015625,87.38232421875
-38.7109375,87.59375
-37.71484375,87.021240234375
-35.625,85.713134765625
-32.8046875,83.785888671875
-29.962890625,81.331787109375
-27.88671875,78.483642578125
-27.0908203125,75.5439453125
-27.5908203125,73.009033203125
-28.91796875,71.45458984375
-30.4033203125,71.335693359375
-31.515625,72.771728515625
-32.0615234375,75.38330078125
-32.103515625,78.3125
-31.673828125,80.51708984375
-30.7275390625,81.33642578125
-29.2373046875,80.980712890625
-27.494140625,80.566162109375
-26.1630859375,81.499755859375
-25.8916015625,84.55615234375
-26.8271484375,89.255859375
-28.34765625,94.03564453125
-29.3583984375,97.157958984375
-28.9609375,97.771484375
-27.08203125,96.420166015625
-24.560546875,94.66845703125
-22.6328125,94.077880859375
-22.1904296875,95.205810546875
-23.2744140625,97.281494140625
-25.1337890625,98.741455078125
-26.7666015625,98.30322265625
-27.5986328125,95.791259765625
-27.779296875,92.1806640625
-27.99609375,88.8701171875
-28.84765625,86.760009765625
-30.34765625,85.76171875
-31.8388671875,85.03125
-32.4775390625,83.7080078125
-31.86328125,81.671630859375
-30.3564453125,79.7939453125
-28.9443359375,79.464599609375
-28.576171875,81.649169921875
-29.52734375,86.099365234375
-31.197265625,91.3125
-32.5,95.3203125
-32.53125,96.8291015625
-31.09765625,95.94287109375
-28.6708984375,93.97998046875
-26.005859375,92.51708984375
-23.708984375,92.33837890625
-22.0908203125,93.004150390625
-21.3212890625,93.257568359375
-21.568359375,91.9248046875
-22.9658203125,88.673583984375
-25.3642578125,84.21630859375
-28.201171875,79.9091796875
-30.544921875,77.064208984375
-31.4619140625,76.3349609375
-30.4677734375,77.489990234375
-27.8447265625,79.65966796875
-24.5908203125,81.891357421875
-22.0517578125,83.675537109375
-21.3486328125,85.1650390625
-22.8544921875,87.0078125
-26.0185546875,89.911376953125
-29.6142578125,94.149169921875
-32.2783203125,99.26953125
-33.1220703125,104.23486328125
-32.001953125,107.936279296875
-29.509765625,109.8203125
-26.669921875,110.239013671875
-24.578125,110.314453125
-24.1220703125,111.345458984375
-25.77734375,114.059326171875
-29.443359375,118.1123046875
-34.30078125,122.131103515625
-38.9052734375,124.3486328125
-41.650390625,123.56591796875
-41.5390625,119.9638671875
-38.767578125,115.265625
-34.7939453125,112.008056640625
-31.552734375,112.24951171875
-30.44140625,116.45068359375
-31.6083984375,123.212158203125
-33.974609375,129.954833984375
-35.9736328125,134.083740234375
-36.4453125,134.03125
-35.224609375,129.853271484375
-33.119140625,123.24072265625
-31.4091796875,116.94921875
-31.1884765625,113.762939453125
-32.873046875,115.373046875
-35.9658203125,121.66357421875
-39.3349609375,130.721923828125
-41.7587890625,139.56884765625
-42.6025390625,145.31103515625
-42.08203125,146.23583984375
-41.0263671875,142.44482421875
-40.2060546875,135.758544921875
-39.8447265625,128.9326171875
-39.5615234375,124.542724609375
-38.7568359375,124.025634765625
-37.2021484375,127.21923828125
-35.3271484375,132.54638671875
-33.9765625,137.7294921875
-33.818359375,140.767333984375
-34.861328125,140.75341796875
-36.390625,138.14892578125
-37.3720703125,134.441162109375
-37.0439453125,131.399169921875
-35.3017578125,130.307373046875
-32.6845703125,131.4365234375
-30.1142578125,134.000732421875
-28.4814453125,136.612548828125
-28.30078125,138.03857421875
-29.486328125,137.85546875
-31.3779296875,136.66455078125
-33.02734375,135.750244140625
-33.5986328125,136.30224609375
-32.6865234375,138.62353515625
-30.4482421875,141.82763671875
-27.484375,144.31103515625
-24.646484375,144.7685546875
-22.767578125,143.035888671875
-22.4521484375,140.1669921875
-23.8798828125,137.675048828125
-26.623046875,136.505859375
-29.6474609375,136.441650390625
-31.6162109375,136.336669921875
-31.5146484375,134.98681640625
-29.234375,132.06103515625
-25.7705078125,128.4970703125
-22.8203125,126.1396484375
-22.0400390625,126.8193359375
-24.3662109375,131.393310546875
-29.6875,139.32275390625
-36.98046875,149.001220703125
-44.7041015625,158.608642578125
-51.3564453125,166.889404296875
-55.88671875,173.410400390625
-57.9638671875,178.26611328125
-57.95703125,181.6103515625
-56.75,183.480224609375
-55.400390625,183.95166015625
-54.7412109375,183.33984375
-55.078125,182.144775390625
-56.1533203125,180.802001953125
-57.3583984375,179.449462890625
-58.0458984375,177.926513671875
-57.8046875,175.99755859375
-56.595703125,173.670166015625
-54.826171875,171.341552734375
-53.2509765625,169.575439453125
-52.7119140625,168.68994140625
-53.759765625,168.522216796875
-56.306640625,168.64990234375
-59.4970703125,168.82177734375
-62.048828125,169.127197265625
-62.88671875,169.720703125
-61.6455078125,170.447998046875
-58.9013671875,170.84228515625
-55.8720703125,170.517578125
-53.939453125,169.59521484375
-53.9951171875,168.75
-56.0927734375,168.79248046875
-59.421875,170.07958984375
-62.7109375,172.182861328125
-64.7548828125,174.030517578125
-64.8466796875,174.45556640625
-62.9521484375,172.7958984375
-59.6494140625,169.2470703125
-55.83984375,164.7939453125
-52.4130859375,160.83837890625
-49.958984375,158.67236328125
-48.712890625,159.010009765625
-48.6318359375,161.738037109375
-49.5048828125,165.988037109375
-51.0361328125,170.524658203125
-52.8515625,174.25
-54.5751953125,176.6240234375
-55.845703125,177.720703125
-56.32421875,177.97412109375
-55.7626953125,177.80517578125
-54.1337890625,177.442138671875
-51.7900390625,176.9931640625
-49.4814453125,176.6083984375
-48.1123046875,176.519775390625
-48.3271484375,176.8916015625
-50.0830078125,177.56201171875
-52.57421875,177.959716796875
-54.5302734375,177.367919921875
-54.8466796875,175.436279296875
-53.0986328125,172.603515625
-49.7734375,170.080810546875
-46.0009765625,169.37255859375
-43.0263671875,171.534912109375
-41.740234375,176.560791015625
-42.392578125,183.208984375
-44.56640625,189.451416015625
-47.4541015625,193.358642578125
-50.2197265625,193.983154296875
-52.380859375,191.749755859375
-53.90234375,188.152587890625
-55.03515625,184.953369140625
-55.953125,183.3212890625
-56.5576171875,183.415771484375
-56.4267578125,184.611572265625
-55.048828125,186.15576171875
-52.193359375,187.75439453125
-48.1650390625,189.681396484375
-43.8466796875,192.365234375
-40.4248046875,195.86474609375
-39.0166015625,199.6796875
-40.251953125,203.01611328125
-44.0400390625,205.22119140625
-49.44140625,206.00341796875
-54.80078125,205.31787109375
-58.2080078125,203.15234375
-58.2431640625,199.52587890625
-54.6689453125,194.76904296875
-48.728515625,189.8466796875
-42.751953125,186.276611328125
-39.1982421875,185.470703125
-39.529296875,187.8134765625
-43.541015625,192.161865234375
-49.4287109375,196.29150390625
-54.556640625,198.112548828125
-56.6376953125,196.943359375
-54.7734375,193.943603515625
-49.9423828125,191.44140625
-44.6494140625,191.579833984375
-41.779296875,195.098388671875
-43.189453125,200.909912109375
-48.787109375,206.66845703125
-56.572265625,209.992431640625
-63.6328125,209.66845703125
-67.546875,206.1826171875
-67.4677734375,201.36962890625
-64.353515625,197.449951171875
-60.3173828125,196.000732421875
-57.37109375,197.349609375
-56.4423828125,200.6064453125
-57.0595703125,204.19873046875
-57.91015625,206.58447265625
-57.7724609375,206.86376953125
-56.1748046875,205.106201171875
-53.634765625,202.278564453125
-51.267578125,199.730712890625
-50.1630859375,198.4580078125
-50.7861328125,198.568359375
-52.7412109375,199.31494140625
-55.0224609375,199.68505859375
-56.56640625,199.14404296875
-56.80859375,198.05810546875
-55.9345703125,197.454345703125
-54.6376953125,198.17431640625
-53.5673828125,199.961669921875
-52.9150390625,201.234619140625
-52.3759765625,199.93994140625
-51.6015625,194.982421875
-50.7568359375,187.176025390625
-50.7529296875,178.976806640625
-52.7841796875,173.083251953125
-57.44921875,170.78857421875
-64.0478515625,171.068359375
-70.5703125,170.9697265625
-74.53125,167.128662109375
-74.1689453125,157.583740234375
-69.4208984375,142.953857421875
-62.0498046875,126.349609375
-54.875,112.07177734375
-50.4267578125,103.712890625
-49.7490234375,102.572509765625
-52.017578125,107.152099609375
-55.1337890625,113.955078125
-56.98828125,119.20458984375
-56.5732421875,120.603271484375
-54.37109375,118.248779296875
-51.8330078125,114.236083984375
-50.427734375,111.28271484375
-50.833984375,111.19775390625
-52.740234375,114.0859375
-55.1982421875,118.62158203125
-57.2841796875,123.03125
-58.5078125,125.953857421875
-58.8134765625,126.704833984375
-58.2666015625,125.041259765625
-56.8955078125,120.956298828125
-54.751953125,114.77490234375
-52.1484375,107.428955078125
-49.6826171875,100.50048828125
-48.037109375,95.814208984375
-47.7216796875,94.680908203125
-48.84375,97.231201171875
-50.9794921875,102.268310546875
-53.224609375,107.79345703125
-54.451171875,111.95068359375
-53.826171875,113.866943359375
-51.251953125,113.926513671875
-47.498046875,113.385009765625
-43.9814453125,113.61181640625
-42.111328125,115.358642578125
-42.666015625,118.366943359375
-45.3759765625,121.50390625
-49.1083984375,123.333740234375
-52.423828125,122.88671875
-54.2470703125,120.251708984375
-54.244140625,116.635009765625
-52.8232421875,113.841064453125
-50.798828125,113.359619140625
-48.9912109375,115.578369140625
-47.8974609375,119.5302734375
-47.517578125,123.357177734375
-47.40234375,125.24951171875
-46.9482421875,124.353759765625
-45.8525390625,121.203125
-44.3154296875,117.462890625
-43.0166015625,115.126220703125
-42.6552734375,115.517822265625
-43.56640625,118.627685546875
-45.44140625,123.18115234375
-47.4140625,127.42578125
-48.4580078125,130.15478515625
-47.86328125,131.314697265625
-45.6494140625,131.88623046875
-42.6083984375,133.187744140625
-39.9912109375,136.057373046875
-38.95703125,140.359619140625
-40.0263671875,145.024658203125
-42.8515625,148.58056640625
-46.259765625,149.90234375
-48.677734375,148.7041015625
-48.779296875,145.497802734375
-46.2021484375,141.1884765625
-41.84765625,136.69287109375
-37.533203125,132.7685546875
-35.12890625,129.958984375
-35.5869140625,128.530029296875
-38.5166015625,128.41162109375
-42.505859375,129.27001953125
-45.8876953125,130.64453125
-47.5224609375,132.0283203125
-47.1279296875,132.85400390625
-45.15625,132.498779296875
-42.439453125,130.435791015625
-39.8115234375,126.51025390625
-37.9423828125,121.22705078125
-37.1904296875,115.786865234375
-37.482421875,111.732666015625
-38.2578125,110.307861328125
-38.5791015625,111.868408203125
-37.51953125,115.729248046875
-34.724609375,120.539794921875
-30.765625,124.957763671875
-27.0322265625,128.179931640625
-25.087890625,130.016845703125
-25.8173828125,130.60595703125
-28.9677734375,130.152099609375
-33.2607421875,128.93994140625
-37.103515625,127.515869140625
-39.2880859375,126.696044921875
-39.5380859375,127.259033203125
-38.5712890625,129.498046875
-37.6875,132.94677734375
-38.015625,136.509765625
-39.814453125,138.973388671875
-42.2451171875,139.62060546875
-43.837890625,138.579833984375
-43.396484375,136.708740234375
-40.7333984375,135.0751953125
-36.8017578125,134.374267578125
-33.177734375,134.629638671875
-31.197265625,135.341552734375
-31.318359375,135.933837890625
-33.048828125,136.167236328125
-35.37109375,136.215576171875
-37.3154296875,136.42724609375
-38.3798828125,137.020751953125
-38.583984375,137.960205078125
-38.298828125,139.052490234375
-37.998046875,140.111572265625
-38.041015625,141.059326171875
-38.544921875,141.89306640625
-39.3671875,142.5810546875
-40.203125,142.979736328125
-40.6962890625,142.84521484375
-40.5361328125,141.9384765625
-39.548828125,140.1572265625
-37.8037109375,137.625244140625
-35.6455078125,134.70751953125
-33.6279296875,131.91748046875
-32.3271484375,129.779296875
-32.1240234375,128.672119140625
-33.0234375,128.703369140625
-34.6669921875,129.684814453125
-36.529296875,131.238525390625
-38.099609375,132.972412109375
-39.0947265625,134.63671875
-39.42578125,136.189208984375
-39.1484375,137.738525390625
-38.41015625,139.460693359375
-37.501953125,141.508544921875
-36.849609375,143.934326171875
-36.861328125,146.591796875
-37.642578125,149.088134765625
-38.8408203125,150.911865234375
-39.751953125,151.703125
-39.734375,151.465087890625
-38.6298828125,150.51806640625
-36.865234375,149.209716796875
-35.1298828125,147.580322265625
-33.8525390625,145.30615234375
-33.0302734375,142.030029296875
-32.4169921875,137.920166015625
-31.9267578125,134.012451171875
-31.76171875,131.969482421875
-32.2626953125,133.204833984375
-33.6083984375,137.851318359375
-35.6015625,144.303955078125
-37.6552734375,149.795166015625
-39.0400390625,151.751220703125
-39.1552734375,149.13134765625
-37.7978515625,142.951171875
-35.2841796875,135.697265625
-32.443359375,129.987548828125
-30.3935546875,127.237548828125
-30.1591796875,127.09228515625
-32.1357421875,127.914306640625
-35.759765625,127.943359375
-39.583984375,126.36376953125
-41.9541015625,123.674072265625
-41.78125,121.265869140625
-39.1298828125,120.59814453125
-35.2255859375,122.45361328125
-31.9130859375,126.61962890625
-30.865234375,132.02587890625
-32.93359375,137.134765625
-37.7900390625,140.40869140625
-44.046875,140.76806640625
-49.64453125,137.97216796875
-52.556640625,132.82373046875
-51.609375,127.05908203125
-47.048828125,122.78271484375
-40.4912109375,121.55419921875
-34.279296875,123.55517578125
-30.541015625,127.3486328125
-30.3671875,130.534912109375
-33.53515625,130.980224609375
-38.6708984375,127.933837890625
-43.8955078125,122.39501953125
-47.5283203125,116.5380859375
-48.650390625,112.611083984375
-47.318359375,111.934814453125
-44.4306640625,114.5224609375
-41.279296875,119.3095703125
-38.966796875,124.720947265625
-38.00390625,129.26611328125
-38.2080078125,131.975830078125
-39.0634765625,132.630615234375
-40.1689453125,131.71044921875
-41.416015625,130.138671875
-42.787109375,128.87109375
-44.05078125,128.5185546875
-44.654296875,129.099609375
-44.056640625,130.053466796875
-42.0849609375,130.517333984375
-39.22265625,129.803955078125
-36.4130859375,127.816650390625
-34.5634765625,125.2001953125
-33.9541015625,123.037841796875
-34.048828125,122.2509765625
-33.798828125,123.043701171875
-32.474609375,124.753662109375
-30.2724609375,126.260009765625
-28.24609375,126.662109375
-27.650390625,125.810546875
-29.0537109375,124.330322265625
-31.91796875,123.17041015625
-34.8955078125,123.00732421875
-36.587890625,123.90283203125
-36.392578125,125.373779296875
-34.8193359375,126.800048828125
-33.0517578125,127.84326171875
-32.154296875,128.60205078125
-32.44921875,129.48046875
-33.4775390625,130.865966796875
-34.478515625,132.889892578125
-34.9833984375,135.33203125
-35.0537109375,137.7080078125
-35.232421875,139.43896484375
-36.0439453125,140.044921875
-37.533203125,139.28662109375
-39.02734375,137.235107421875
-39.3984375,134.208984375
-37.78515625,130.64599609375
-34.2294921875,127.01953125
-29.861328125,123.828857421875
-26.4208984375,121.60693359375
-25.4462890625,120.78271484375
-27.37890625,121.45263671875
-31.2392578125,123.197021484375
-35.0576171875,125.169921875
-36.9306640625,126.41552734375
-36.0927734375,126.275390625
-33.341796875,124.69091796875
-30.517578125,122.24609375
-29.4228515625,119.913818359375
-30.82421875,118.671630859375
-34.10546875,119.10498046875
-37.71484375,121.150146484375
-40.0595703125,124.042236328125
-40.302734375,126.531982421875
-38.62109375,127.413818359375
-35.765625,126.14794921875
-32.396484375,123.25146484375
-28.5791015625,120.13720703125
-23.9453125,118.426025390625
-18.2568359375,119.1005859375
-12.0458984375,121.962890625
-6.6904296875,125.705810546875
-3.8369140625,128.55322265625
-4.486328125,129.1279296875
-8.3193359375,127.095458984375
-13.6494140625,123.2734375
-18.1474609375,119.2333984375
-19.865234375,116.64111328125
-18.1552734375,116.658447265625
-13.9033203125,119.589599609375
-9.0595703125,124.798583984375
-5.60546875,130.88134765625
-4.681640625,136.109619140625
-6.1923828125,139.058837890625
-8.99609375,139.233154296875
-11.4658203125,137.31298828125
-12.1728515625,134.8583984375
-10.484375,133.54736328125
-6.904296875,134.32275390625
-2.9072265625,136.846923828125
-0.197265625,139.59521484375
0.1865234375,140.60546875
-1.62890625,138.564208984375
-4.470703125,133.634765625
-6.884765625,127.51025390625
-7.982421875,122.598388671875
-7.8125,120.785400390625
-7.091796875,122.4677734375
-6.5380859375,126.37451171875
-6.298828125,130.29248046875
-5.9560546875,132.273193359375
-5.1162109375,131.6533203125
-3.9697265625,129.332763671875
-3.3818359375,127.212158203125
-4.34375,127.11181640625
-7.1689453125,129.7900390625
-11.1064453125,134.57080078125
-14.6171875,139.740234375
-16.2119140625,143.452880859375
-15.3466796875,144.5810546875
-12.6796875,143.108642578125
-9.6708984375,139.967041015625
-7.7119140625,136.49365234375
-7.41015625,133.8310546875
-8.4794921875,132.500732421875
-10.052734375,132.267822265625
-11.2890625,132.305908203125
-11.79296875,131.652587890625
-11.701171875,129.801025390625
-11.4111328125,127.140869140625
-11.244140625,124.9423828125
-11.2421875,124.82373046875
-11.2421875,127.9013671875
-11.041015625,134.0478515625
-10.51953125,141.76708984375
-9.650390625,148.841552734375
-8.4326171875,153.360107421875
-6.8603515625,154.496826171875
-4.9091796875,152.65087890625
-2.6298828125,149.05859375
-0.2998046875,145.180419921875
1.537109375,142.179443359375
2.17578125,140.636962890625
1.0869140625,140.51611328125
-1.6435546875,141.316650390625
-5.1552734375,142.3056640625
-8.0654296875,142.787353515625
-9.1279296875,142.345703125
-7.8779296875,141.000244140625
-4.8720703125,139.22900390625
-1.2939453125,137.846923828125
1.6953125,137.741455078125
3.54296875,139.458251953125
4.3125,142.7978515625
4.3984375,146.629150390625
4.0712890625,149.181884765625
3.3759765625,148.7919921875
2.251953125,144.824951171875
0.806640625,138.223388671875
-0.6337890625,131.3193359375
-1.64453125,126.868896484375
-1.9482421875,126.821044921875
-1.5810546875,131.410400390625
-0.78515625,139.001708984375
0.1103515625,146.7333984375
0.859375,151.68798828125
1.259765625,152.09228515625
1.1669921875,148.03369140625
0.58203125,141.3408203125
-0.2783203125,134.709228515625
-0.9765625,130.497314453125
-1.04296875,129.775634765625
-0.2236328125,132.027587890625
1.3720703125,135.56884765625
3.2724609375,138.43359375
4.8564453125,139.27587890625
5.5986328125,137.88916015625
5.3466796875,135.1240234375
4.4091796875,132.332763671875
3.4248046875,130.666015625
3.0361328125,130.538818359375
3.59765625,131.451416015625
5.1171875,132.1826171875
7.3583984375,131.327392578125
9.9677734375,128.0107421875
12.5517578125,122.465576171875
14.6318359375,116.073486328125
15.65234375,110.75830078125
15.1591796875,108.079833984375
13.046875,108.573974609375
9.806640625,111.610107421875
6.4853515625,115.732666015625
4.2685546875,119.230224609375
3.826171875,120.761474609375
4.87890625,119.840087890625
6.30078125,116.97607421875
6.8388671875,113.418701171875
5.9228515625,110.611572265625
4.041015625,109.636474609375
2.4384765625,110.83349609375
2.375,113.731201171875
4.4013671875,117.258544921875
7.9619140625,120.222412109375
11.64453125,121.82421875
13.71484375,122.037109375
12.9033203125,121.632080078125
8.9453125,121.844970703125
2.80078125,123.799072265625
-3.62109375,127.949951171875
-8.048828125,133.777099609375
-8.6298828125,139.837158203125
-4.65234375,144.1767578125
2.9970703125,145.03173828125
12.041015625,141.609130859375
19.658203125,134.604248046875
23.658203125,126.105712890625
23.41015625,118.814697265625
19.935546875,114.915771484375
15.2470703125,115.173095703125
11.244140625,118.656494140625
8.841796875,123.232421875
7.833984375,126.51171875
7.41796875,126.860107421875
7.001953125,124.03515625
6.689453125,119.24072265625
7.1328125,114.606689453125
8.7587890625,112.33056640625
11.099609375,113.77392578125
12.7548828125,118.818115234375
12.2021484375,125.802490234375
8.83203125,132.147216796875
3.5537109375,135.51806640625
-1.578125,134.931396484375
-4.4208984375,131.251708984375
-3.9013671875,126.73583984375
-0.4921875,123.8388671875
4.14453125,123.961669921875
8.0625,126.835205078125
9.849609375,130.824951171875
9.1025390625,133.878662109375
6.4140625,134.560791015625
3.01953125,132.650634765625
0.3154296875,129.092529296875
-0.73828125,125.389404296875
0.017578125,122.822998046875
1.8427734375,121.89306640625
3.494140625,122.187744140625
3.9033203125,122.720703125
2.6865234375,122.495849609375
0.314453125,121.00048828125
-2.205078125,118.385498046875
-3.8251953125,115.30078125
-3.8876953125,112.554931640625
-2.2958984375,110.796875
0.509765625,110.304443359375
3.701171875,110.926025390625
6.314453125,112.177734375
7.607421875,113.492919921875
7.302734375,114.533203125
5.74609375,115.371337890625
3.7607421875,116.364990234375
2.3212890625,117.785400390625
2.134765625,119.4892578125
3.4306640625,120.947998046875
5.9169921875,121.666748046875
8.857421875,121.67919921875
11.2509765625,121.659423828125
12.107421875,122.479248046875
10.88671875,124.554443359375
7.92578125,127.5380859375
4.443359375,130.6162109375
2.0703125,133.110595703125
2.0712890625,134.906982421875
4.6455078125,136.36572265625
8.8388671875,137.864990234375
13.05859375,139.3876953125
15.888671875,140.513671875
16.6875,140.80419921875
15.6923828125,140.239501953125
13.6845703125,139.27783203125
11.556640625,138.509521484375
9.9638671875,138.228515625
9.224609375,138.32958984375
9.33984375,138.527099609375
10.05078125,138.639892578125
10.9453125,138.68603515625
11.6025390625,138.748046875
11.744140625,138.780029296875
11.287109375,138.5673828125
10.25390625,137.91162109375
8.69140625,136.891357421875
6.716796875,135.93701171875
4.654296875,135.630615234375
2.9716796875,136.35888671875
2.111328125,138.050537109375
2.197265625,140.148193359375
2.9072265625,141.839111328125
3.6025390625,142.395751953125
3.6923828125,141.4501953125
3.1240234375,139.096923828125
2.533203125,135.779052734375
2.912109375,132.123779296875
4.8828125,128.815185546875
8.0849609375,126.522705078125
11.212890625,125.800537109375
12.6923828125,126.892333984375
11.6142578125,129.535400390625
8.2998046875,132.92431640625
4.1640625,135.952392578125
0.958984375,137.60595703125
-0.0712890625,137.326904296875
1.248046875,135.199951171875
4.0986328125,131.924072265625
7.2607421875,128.59326171875
9.7373046875,126.291015625
11.0986328125,125.643310546875
11.5126953125,126.51953125
11.458984375,128.087158203125
11.3828125,129.238525390625
11.4794921875,129.201171875
11.669921875,128.02392578125
11.7470703125,126.636962890625
11.59765625,126.380859375
11.3095703125,128.2333984375
11.0634765625,132.169921875
10.94921875,137.0634765625
10.8154296875,141.218017578125
10.3466796875,143.209716796875
9.419921875,142.53515625
8.3935546875,139.7177734375
8.052734375,135.91748046875
9.146484375,132.353515625
11.736328125,129.82568359375
14.9150390625,128.5029296875
17.21484375,128.00439453125
17.4287109375,127.739013671875
15.3359375,127.32958984375
11.8427734375,126.8564453125
8.462890625,126.775390625
6.521484375,127.5791015625
6.5068359375,129.50537109375
7.9462890625,132.417236328125
9.703125,135.89990234375
10.5185546875,139.367919921875
9.646484375,142.113525390625
7.2138671875,143.369873046875
4.138671875,142.56396484375
1.626953125,139.7607421875
0.52734375,136.10546875
0.9267578125,133.8056640625
2.1806640625,135.484619140625
3.4111328125,143.1923828125
3.9609375,157.779541015625
3.65625,179.104248046875
2.6875,206.9521484375
1.2783203125,242.03271484375
-0.5224609375,286.27783203125
-2.8125,342.04833984375
-5.625,410.5859375
-8.6923828125,490.544921875
-11.36328125,577.4013671875
-12.7255859375,664.10595703125
-12.0927734375,742.8115234375
-9.3955078125,807.05810546875
-5.4169921875,853.56884765625
-1.5654296875,882.87939453125
0.6865234375,898.50927734375
0.474609375,905.1435546875
-2.01953125,906.6748046875
-5.623046875,904.978515625
-8.8017578125,899.86181640625
-10.4736328125,890.05126953125
-10.6064453125,874.52978515625
-10.0947265625,853.4365234375
-10.146484375,828.0859375
-11.4951171875,800.3271484375
-13.892578125,771.794921875
-16.2060546875,743.49560546875
-17.0478515625,715.857421875
-15.701171875,689.01318359375
-12.826171875,663.07177734375
-10.3212890625,638.1982421875
-10.29296875,614.5322265625
-13.759765625,592.11474609375
-19.828125,570.88525390625
-26,550.763671875
-29.45703125,531.74365234375
-28.5244140625,513.90771484375
-23.5224609375,497.3759765625
-16.5556640625,482.18505859375
-10.423828125,468.22607421875
-7.240234375,455.23193359375
-7.5927734375,442.826171875
-10.517578125,430.580078125
-14.236328125,418.1181640625
-17.041015625,405.267578125
-17.98046875,392.1884765625
-17.001953125,379.39013671875
-14.7890625,367.5546875
-12.3583984375,357.26171875
-10.5859375,348.705078125
-9.8984375,341.5595703125
-10.1318359375,335.0146484375
-10.6787109375,328.06396484375
-10.8349609375,319.9638671875
-10.1640625,310.6806640625
-8.7431640625,301.01611328125
-7.1025390625,292.25634765625
-5.9453125,285.50146484375
-5.6923828125,281.04833984375
-6.1357421875,278.23046875
-6.5556640625,275.79541015625
-6.23046875,272.64306640625
-4.9873046875,268.455078125
-3.4189453125,263.8037109375
-2.515625,259.66064453125
-3.00390625,256.67822265625
-4.833984375,254.75537109375
-7.1474609375,253.14453125
-8.7509765625,250.93505859375
-8.7841796875,247.54150390625
-7.1240234375,242.94140625
-4.431640625,237.64990234375
-1.83984375,232.49169921875
-0.42578125,228.30126953125
-0.7197265625,225.67529296875
-2.533203125,224.875
-5.076171875,225.86328125
-7.412109375,228.33251953125
-8.896484375,231.6357421875
-9.3515625,234.70556640625
-8.9736328125,236.18017578125
-8.0732421875,234.8271484375
-6.8427734375,230.12890625
-5.345703125,222.6962890625
-3.638671875,214.21533203125
-1.8603515625,206.86376953125
-0.365234375,202.38818359375
0.369140625,201.27880859375
-0.0244140625,202.4541015625
-1.5263671875,203.7080078125
-3.6572265625,202.78173828125
-5.681640625,198.5322265625
-6.943359375,191.5908203125
-7.1826171875,184.11474609375
-6.595703125,178.75927734375
-5.740234375,177.3916015625
-5.2568359375,180.197265625
-5.4951171875,185.60302734375
-6.3896484375,191.0048828125
-7.4833984375,193.9580078125
-8.1611328125,193.2294921875
-7.8720703125,189.220703125
-6.3125,183.5849609375
-3.599609375,178.31103515625
-0.3671875,174.83544921875
2.34375,173.58203125
3.4638671875,174.0615234375
2.3759765625,175.33837890625
-0.7255859375,176.52978515625
-4.759765625,177.097900390625
-8.1767578125,176.8544921875
-9.6240234375,175.751953125
-8.5576171875,173.724853515625
-5.4541015625,170.736328125
-1.4287109375,166.945068359375
2.328125,162.79296875
5.0478515625,158.892333984375
6.5419921875,155.78662109375
7.0029296875,153.71728515625
6.755859375,152.522705078125
6.1328125,151.717529296875
5.4453125,150.788818359375
5,149.527587890625
5.0341796875,148.18017578125
5.669921875,147.2978515625
6.7421875,147.361083984375
7.8095703125,148.441162109375
8.388671875,150.056884765625
8.30859375,151.3212890625
7.9453125,151.34033203125
8.064453125,149.644287109375
9.3115234375,146.406494140625
11.6748046875,142.301513671875
14.396484375,138.149658203125
16.390625,134.62158203125
16.8359375,132.17724609375
15.6015625,131.1318359375
13.2265625,131.623046875
10.583984375,133.422119140625
8.509765625,135.817138671875
7.4931640625,137.79150390625
7.5703125,138.494140625
8.3564453125,137.69482421875
9.3076171875,135.887939453125
10.015625,133.89892578125
10.4384765625,132.2900390625
10.8974609375,130.996826171875
11.8369140625,129.499755859375
13.4423828125,127.360595703125
15.4443359375,124.719970703125
17.169921875,122.2978515625
17.908203125,120.912109375
17.2998046875,120.831298828125
15.6044921875,121.517578125
13.5810546875,121.988525390625
12.0458984375,121.5244140625
11.3857421875,120.194580078125
11.400390625,118.759033203125
11.5244140625,117.966796875
11.3046875,117.82421875
10.736328125,117.425537109375
10.2275390625,115.59130859375
10.28125,111.846435546875
11.0625,107.027099609375
12.1943359375,103.014892578125
12.91015625,101.7646484375
12.5869140625,104.19873046875
11.22265625,109.636962890625
9.662109375,116.12109375
9.119140625,121.4599609375
10.3271484375,124.35302734375
12.81640625,124.954833984375
15.0009765625,124.549072265625
15.0576171875,124.62109375
12.125,125.94287109375
7.0869140625,128.25244140625
2.298828125,130.60595703125
0.5009765625,132.0595703125
3.3291015625,132.218505859375
10.3046875,131.413818359375
18.8759765625,130.443359375
25.626953125,130.08447265625
27.91015625,130.668212890625
25.064453125,132.050537109375
18.609375,133.91064453125
11.2822265625,136.078125
5.6904296875,138.594482421875
3.14453125,141.4970703125
3.4033203125,144.5107421875
5.173828125,146.890380859375
6.9990234375,147.576904296875
8.0283203125,145.658447265625
8.22265625,140.91162109375
8.1044921875,134.09814453125
8.2236328125,126.77978515625
8.8134765625,120.76318359375
9.7412109375,117.45751953125
10.728515625,117.4111328125
11.6044921875,120.173828125
12.3037109375,124.5068359375
12.76953125,128.869384765625
12.8857421875,131.953369140625
12.55078125,133.05810546875
11.9462890625,132.193359375
11.564453125,129.956787109375
11.955078125,127.287353515625
13.3662109375,125.119140625
15.4052734375,123.999267578125
17.109375,123.888671875
17.3125,124.30224609375
15.3046875,124.70947265625
11.28515625,124.86572265625
6.404296875,124.85302734375
2.2431640625,124.87158203125
0.1103515625,124.997314453125
0.4892578125,125.099609375
2.8623046875,124.9306640625
5.978515625,124.330810546875
8.4208984375,123.400634765625
9.2861328125,122.482421875
8.546875,121.90283203125
6.9521484375,121.66943359375
5.533203125,121.40234375
5.0341796875,120.622314453125
5.634765625,119.223876953125
7.0654296875,117.734130859375
8.8984375,117.146240234375
10.7548828125,118.31591796875
12.296875,121.3154296875
13.1455078125,125.153564453125
12.9228515625,128.16455078125
11.498046875,128.865234375
9.228515625,126.81689453125
6.9208984375,122.91943359375
5.53125,118.999267578125
5.66796875,116.89794921875
7.2001953125,117.577392578125
9.2314453125,120.71484375
10.4921875,124.959228515625
9.9912109375,128.673583984375
7.587890625,130.706787109375
4.142578125,130.785888671875
1.1328125,129.364990234375
-0.0068359375,127.185302734375
1.37890625,124.849853515625
4.8203125,122.649169921875
8.904296875,120.600830078125
12.025390625,118.597900390625
13.130859375,116.59423828125
12.1962890625,114.73193359375
10.029296875,113.3056640625
7.74609375,112.55419921875
6.189453125,112.460693359375
5.6669921875,112.75146484375
6.0693359375,113.094970703125
7.0908203125,113.34033203125
8.4140625,113.582275390625
9.6689453125,114.059326171875
10.474609375,114.940185546875
10.513671875,116.13720703125
9.708984375,117.289306640625
8.3310546875,117.88671875
6.90625,117.5439453125
5.9658203125,116.242431640625
5.7841796875,114.4287109375
6.259765625,112.916015625
7.0791015625,112.6123046875
7.900390625,114.1494140625
8.494140625,117.527587890625
8.744140625,121.94091796875
8.537109375,125.96826171875
7.806640625,128.153564453125
6.6162109375,127.71044921875
5.177734375,124.976806640625
3.8642578125,121.302001953125
3.037109375,118.378662109375
2.888671875,117.40478515625
3.28515625,118.55029296875
3.8134765625,120.9873046875
4.03515625,123.4287109375
3.7890625,124.791748046875
3.353515625,124.6669921875
3.3173828125,123.4287109375
4.2119140625,121.99609375
6.107421875,121.346923828125
8.4970703125,122.006103515625
10.453125,123.72705078125
11.1591796875,125.600830078125
10.400390625,126.542236328125
8.7255859375,125.86083984375
7.1162109375,123.604248046875
6.3623046875,120.49755859375
6.52734375,117.545654296875
6.9765625,115.52392578125
6.9208984375,114.626708984375
6.0576171875,114.423828125
4.83203125,114.169921875
4.1044921875,113.2666015625
4.5810546875,111.6318359375
6.376953125,109.769775390625
8.9501953125,108.469482421875
11.4208984375,108.267333984375
12.9951171875,109.047607421875
13.2216796875,110.080810546875
12.099609375,110.52001953125
9.998046875,110.020751953125
7.5419921875,109.03955078125
5.48828125,108.58642578125
4.4521484375,109.53369140625
4.6591796875,111.977783203125
5.8701171875,115.084716796875
7.5419921875,117.556396484375
9.1015625,118.347900390625
10.18359375,117.156005859375
10.724609375,114.41455078125
10.8193359375,110.94677734375
10.603515625,107.57470703125
10.1572265625,104.912841796875
9.5341796875,103.336669921875
8.8642578125,102.99169921875
8.3955078125,103.799072265625
8.435546875,105.437744140625
9.193359375,107.380126953125
10.5634765625,109.0146484375
12.0263671875,109.81103515625
12.7646484375,109.433837890625
12.0732421875,107.783203125
9.78125,105.031982421875
6.4150390625,101.658447265625
2.99609375,98.41796875
0.5380859375,96.125732421875
-0.421875,95.306396484375
-0.0673828125,95.9091796875
0.923828125,97.3017578125
1.8818359375,98.5654296875
2.5966796875,98.899658203125
3.36328125,97.97509765625
4.587890625,96.069580078125
6.39453125,93.944580078125
8.51953125,92.44921875
10.513671875,92.07275390625
12.03515625,92.73779296875
12.93359375,93.964599609375
13.1923828125,95.229736328125
12.8701171875,96.27734375
12.1015625,97.189208984375
11.1650390625,98.184814453125
10.5009765625,99.299560546875
10.5556640625,100.220703125
11.548828125,100.42138671875
13.15234375,99.555908203125
14.521484375,97.816162109375
14.6015625,95.937744140625
12.7490234375,94.8359375
9.15234375,95.0966796875
4.7900390625,96.661865234375
1.0068359375,98.81689453125
-1.046875,100.517333984375
-0.783203125,100.865966796875
1.7255859375,99.508056640625
5.8671875,96.78173828125
10.6748046875,93.552001953125
15.01953125,90.804443359375
17.859375,89.18505859375
18.53125,88.662109375
17.0615234375,88.51904296875
14.263671875,87.7314453125
11.515625,85.549560546875
10.154296875,81.939208984375
10.833984375,77.62890625
13.1875,73.736328125
16.0546875,71.16357421875
18.07421875,70.1005859375
18.40234375,69.913330078125
17.0595703125,69.537841796875
14.830078125,68.166259765625
12.763671875,65.818603515625
11.630859375,63.41015625
11.6025390625,62.262939453125
12.3349609375,63.34521484375
13.287109375,66.677978515625
14.0703125,71.228271484375
14.533203125,75.343994140625
14.5849609375,77.50146484375
14.0537109375,77.039306640625
12.703125,74.476806640625
10.478515625,71.275634765625
7.658203125,69.13818359375
4.818359375,69.193603515625
2.6669921875,71.4658203125
1.8173828125,74.884521484375
2.5244140625,77.82421875
4.541015625,78.96630859375
7.171875,78.01904296875
9.541015625,75.898193359375
10.921875,74.22412109375
11.0400390625,74.4130859375
10.1953125,76.9296875
9.109375,81.11279296875
8.51953125,85.58935546875
8.6904296875,88.951416015625
9.1826171875,90.3740234375
9.1962890625,89.902099609375
8.2724609375,88.305908203125
6.7666015625,86.577880859375
5.6875,85.4140625
5.955078125,85.00390625
7.6953125,85.21630859375
10.0302734375,85.923828125
11.63671875,87.11669921875
11.6396484375,88.6943359375
10.2705078125,90.18212890625
8.7509765625,90.72998046875
8.4423828125,89.583740234375
9.8583984375,86.705810546875
12.2529296875,83.05908203125
14.111328125,80.223876953125
14.2177734375,79.5322265625
12.4775390625,81.281005859375
10.0380859375,84.59375
8.6328125,87.969482421875
9.5068359375,90.08349609375
12.62890625,90.314208984375
16.634765625,88.738525390625
19.5439453125,85.798095703125
19.8388671875,81.9619140625
17.267578125,77.627685546875
12.849609375,73.2294921875
8.267578125,69.36328125
5.05078125,66.7470703125
3.998046875,65.965576171875
5.1357421875,67.210693359375
7.859375,70.176025390625
11.2890625,74.169189453125
14.5087890625,78.3212890625
16.7900390625,81.7734375
17.6513671875,83.8759765625
16.94921875,84.30322265625
14.958984375,83.080078125
12.4619140625,80.527587890625
10.59765625,77.240234375
10.30078125,74.13232421875
11.6875,72.35791015625
13.87890625,72.95849609375
15.404296875,76.313720703125
15.03125,81.7529296875
12.470703125,87.645263671875
8.5458984375,91.973876953125
4.7978515625,93.168701171875
2.7275390625,90.808349609375
3.07421875,85.856201171875
5.5390625,80.29345703125
9.0263671875,76.2392578125
12.1962890625,75.01220703125
13.9853515625,76.564208984375
13.90234375,79.6083984375
12.0068359375,82.38720703125
8.9140625,83.627197265625
5.630859375,83.12744140625
3.275390625,81.6767578125
2.5009765625,80.465087890625
3.1005859375,80.410400390625
4.0615234375,81.762939453125
4.201171875,84.14794921875
2.951171875,86.8828125
0.7822265625,89.29248046875
-1.00390625,90.84375
-1.044921875,91.199951171875
1.240234375,90.349365234375
5.244140625,88.795654296875
9.466796875,87.522216796875
12.267578125,87.584228515625
12.62109375,89.51171875
10.447265625,92.93212890625
6.5341796875,96.73388671875
2.134765625,99.63134765625
-1.4765625,100.828857421875
-3.404296875,100.36279296875
-3.3642578125,99.01171875
-1.6796875,97.837158203125
1.0068359375,97.608642578125
4.046875,98.406005859375
7.0078125,99.5947265625
9.6259765625,100.220947265625
11.6162109375,99.619873046875
12.583984375,97.876953125
12.177734375,95.86962890625
10.416015625,94.8134765625
7.849609375,95.591796875
5.36328125,98.246337890625
3.6875,101.928955078125
3.0390625,105.3271484375
3.0888671875,107.26513671875
3.380859375,107.126953125
3.763671875,104.968994140625
4.4375,101.419189453125
5.642578125,97.510986328125
7.1728515625,94.521728515625
8.3486328125,93.66455078125
8.3115234375,95.604248046875
6.609375,99.99951171875
3.5751953125,105.42578125
0.2841796875,109.91455078125
-1.8955078125,111.8779296875
-2.001953125,110.881103515625
-0.06640625,107.76123046875
2.8564453125,104.015869140625
5.24609375,100.90185546875
6.0400390625,98.80712890625
5.28515625,97.24560546875
4.091796875,95.384765625
3.845703125,92.740478515625
5.328125,89.600341796875
8.2529296875,86.94189453125
11.556640625,85.859619140625
14.22265625,86.908447265625
16.0595703125,89.88330078125
17.94921875,94.212890625
21.3037109375,99.708251953125
27.1904296875,107.081298828125
35.583984375,117.892822265625
45.2978515625,133.861572265625
54.69140625,155.81298828125
62.609375,182.84130859375
69.0380859375,212.1982421875
75.005859375,240.01904296875
81.8916015625,262.505859375
90.4599609375,276.982421875
100.3271484375,282.48681640625
110.09375,279.85693359375
118.056640625,271.419921875
123.0380859375,260.39697265625
124.845703125,250.06591796875
124.1416015625,242.85595703125
121.99609375,239.69580078125
119.4755859375,239.8896484375
117.40234375,241.63720703125
116.296875,242.93701171875
116.259765625,242.44775390625
116.9404296875,239.935546875
117.708984375,236.16064453125
118.0048828125,232.35888671875
117.6494140625,229.65576171875
116.91796875,228.69677734375
116.26953125,229.52294921875
115.9814453125,231.6083984375
115.94140625,234.03173828125
115.8369140625,235.861328125
115.466796875,236.5908203125
114.9541015625,236.396484375
114.607421875,235.98388671875
114.6162109375,236.125
114.9453125,237.166015625
115.3779296875,238.82666015625
115.748046875,240.412109375
116.056640625,241.3056640625
116.421875,241.39404296875
116.9404296875,241.150390625
117.5458984375,241.3349609375
117.9833984375,242.49951171875
117.93359375,244.67724609375
117.2587890625,247.3984375
116.2021484375,249.90478515625
115.318359375,251.37744140625
115.205078125,251.1240234375
116.1181640625,248.8037109375
117.7744140625,244.673828125
119.486328125,239.681640625
120.5830078125,235.25439453125
120.79296875,232.76904296875
120.37109375,232.94970703125
119.87109375,235.5361328125
119.71484375,239.3857421875
119.984375,242.921875
120.453125,244.6826171875
120.8681640625,243.759765625
121.18359375,240.09423828125
121.607421875,234.61767578125
122.4658203125,229.11572265625
123.8740234375,225.6357421875
125.580078125,225.52294921875
126.9599609375,228.5947265625
127.3447265625,233.09619140625
126.3681640625,236.59326171875
124.2333984375,237.2880859375
121.6953125,234.92041015625
119.80859375,230.7421875
119.439453125,226.6845703125
120.8291015625,224.30224609375
123.373046875,224.154296875
125.9130859375,225.86572265625
127.3076171875,228.6318359375
126.98046875,231.66796875
125.1103515625,234.384765625
122.5048828125,236.31298828125
120.2421875,237.0732421875
119.236328125,236.50341796875
119.90625,234.8369140625
122.0498046875,232.71240234375
124.9130859375,230.84619140625
127.5341796875,229.56640625
129.0947265625,228.51318359375
129.2998046875,226.78173828125
128.447265625,223.4931640625
127.1865234375,218.53466796875
126.130859375,212.97314453125
125.4990234375,208.7783203125
125.0888671875,207.80615234375
124.5400390625,210.609375
123.7041015625,215.947265625
122.7470703125,221.427734375
122.0615234375,224.90185546875
122.0166015625,225.61669921875
122.70703125,224.359375
123.8857421875,222.64453125
124.9892578125,221.673828125
125.3876953125,221.80078125
124.67578125,222.66748046875
122.91015625,223.65283203125
120.6357421875,224.22998046875
118.7392578125,224.1416015625
118.083984375,223.4560546875
119.1318359375,222.587890625
121.6806640625,222.17578125
124.84375,222.7783203125
127.34765625,224.5537109375
128.126953125,227.11572265625
126.830078125,229.6552734375
124.0517578125,231.244140625
121.0810546875,231.25146484375
119.3095703125,229.6689453125
119.4462890625,227.16943359375
121.0888671875,224.8388671875
122.8203125,223.74072265625
123.009765625,224.5107421875
120.8818359375,227.076171875
117.248046875,230.56884765625
114.1787109375,233.607421875
113.818359375,234.951171875
117.037109375,234.2216796875
122.84765625,232.20361328125
128.859375,230.47021484375
132.533203125,230.56640625
132.4150390625,233.158203125
128.8359375,237.58203125
123.603515625,242.06640625
118.890625,244.615234375
116.0693359375,244.1318359375
115.2236328125,241.111328125
115.501953125,237.40087890625
115.9775390625,235.13330078125
116.2724609375,235.4765625
116.6044921875,237.9912109375
117.330078125,240.9794921875
118.44140625,242.60009765625
119.3154296875,242.0595703125
119.048828125,240.06787109375
117.0712890625,238.2890625
113.6982421875,238.173828125
110.0849609375,239.98876953125
107.5810546875,242.6982421875
106.9833984375,244.64453125
108.2119140625,244.52734375
110.5283203125,242.10595703125
113.025390625,238.3017578125
115.08203125,234.66943359375
116.544921875,232.521484375
117.6396484375,232.240234375
118.626953125,233.20068359375
119.5107421875,234.39013671875
119.91796875,235.228515625
119.31640625,235.97509765625
117.38671875,237.37353515625
114.4111328125,239.81201171875
111.296875,242.7041015625
109.19140625,244.67529296875
108.8505859375,244.42138671875
110.3017578125,241.5712890625
112.81640625,236.9150390625
115.333984375,231.89208984375
116.994140625,227.79736328125
117.447265625,225.20263671875
116.8984375,223.9130859375
115.80859375,223.34912109375
114.5869140625,223.07080078125
113.42578125,223.06591796875
112.380859375,223.65673828125
111.5595703125,225.14697265625
111.1279296875,227.49365234375
111.1259765625,230.2548828125
111.287109375,232.82275390625
111.14453125,234.70556640625
110.396484375,235.68505859375
109.2373046875,235.78076171875
108.337890625,235.15087890625
108.4541015625,234.02783203125
109.8994140625,232.73486328125
112.314453125,231.69384765625
114.8212890625,231.32421875
116.599609375,231.7890625
117.37890625,232.72216796875
117.474609375,233.2353515625
117.4453125,232.37890625
117.5498046875,229.86767578125
117.6826171875,226.54541015625
117.607421875,224.150390625
117.3857421875,224.365234375
117.44140625,227.7841796875
118.3076171875,233.4970703125
120.158203125,239.5361328125
122.6064453125,243.88720703125
124.845703125,245.46142578125
126.060546875,244.57177734375
125.8681640625,242.712890625
124.51953125,241.75537109375
122.7412109375,242.9423828125
121.373046875,246.27392578125
121.0146484375,250.60546875
121.845703125,254.390625
123.5771484375,256.53271484375
125.611328125,256.8779296875
127.283203125,256.12255859375
128.134765625,255.2880859375
128.09375,255.14990234375
127.40234375,255.888671875
126.4306640625,257.16015625
125.5126953125,258.4140625
124.9111328125,259.216796875
124.818359375,259.35986328125
125.3408203125,258.8271484375
126.40625,257.7626953125
127.734375,256.4873046875
128.859375,255.4560546875
129.2626953125,255.12158203125
128.6162109375,255.7822265625
126.998046875,257.49169921875
124.8681640625,260.04150390625
122.8427734375,262.9541015625
121.412109375,265.48681640625
120.8115234375,266.70751953125
121.078125,265.75244140625
122.1171875,262.2802734375
123.67578125,256.91796875
125.28515625,251.3251953125
126.3037109375,247.646484375
126.2626953125,247.54150390625
125.1181640625,251.322265625
123.34375,257.69189453125
121.65625,264.25537109375
120.6669921875,268.57421875
120.537109375,269.24072265625
120.9140625,266.4580078125
121.1689453125,261.85302734375
120.7666015625,257.62646484375
119.5625,255.4619140625
117.8759765625,255.7685546875
116.2880859375,257.658203125
115.3740234375,259.68896484375
115.4677734375,260.88330078125
116.52734375,261.3544921875
118.0625,262.05810546875
119.345703125,263.85009765625
119.7216796875,266.5517578125
118.947265625,268.83740234375
117.1923828125,269.0625
114.8271484375,266.38916015625
112.119140625,261.26806640625
109.048828125,254.916015625
105.2587890625,248.212890625
100.08984375,240.92041015625
92.8134765625,231.86328125
82.9228515625,219.9375
70.4951171875,205.21240234375
56.357421875,189.31494140625
42.029296875,174.798828125
29.390625,163.9521484375
20.20703125,157.81640625
15.6201171875,155.96044921875
15.732421875,156.95751953125
19.4150390625,159.14404296875
24.5673828125,161.2255859375
28.7919921875,162.55712890625
30.2294921875,163.076171875
28.2373046875,163.01171875
23.5849609375,162.5625
18.154296875,161.71826171875
14.0986328125,160.28076171875
12.845703125,158.04638671875
14.4375,155.02197265625
17.6201171875,151.6181640625
20.5,148.67236328125
21.5400390625,147.17333984375
20.306640625,147.7373046875
17.546875,150.1005859375
14.7822265625,153.06396484375
13.4482421875,154.99853515625
14.111328125,154.724609375
16.1328125,152.1982421875
18.083984375,148.59912109375
18.6005859375,145.7294921875
17.23828125,144.99365234375
14.751953125,146.60009765625
12.7138671875,149.47705078125
12.75390625,151.98876953125
15.60546875,152.9482421875
20.58203125,152.24267578125
25.607421875,150.740234375
28.115234375,149.63623046875
26.3740234375,149.7158203125
20.5234375,150.9560546875
12.6806640625,152.533203125
5.9580078125,153.19775390625
3.0166015625,151.82470703125
4.7646484375,147.99267578125
9.9853515625,142.318359375
16.025390625,136.30078125
20.2001953125,131.65625
21.0537109375,129.46240234375
18.794921875,129.66796875
14.845703125,131.23046875
10.923828125,132.80078125
8.2607421875,133.52001953125
7.337890625,133.4169921875
8.01171875,133.16845703125
9.8046875,133.37158203125
12.1943359375,133.923828125
14.7109375,134.0498046875
16.9140625,132.9609375
18.2978515625,130.5654296875
18.3642578125,127.5986328125
16.8701171875,125.115234375
14.1474609375,123.80810546875
11.162109375,123.63525390625
9.1904296875,123.89697265625
9.123046875,123.66259765625
10.9404296875,122.24560546875
13.6455078125,119.5546875
15.787109375,116.16650390625
16.2197265625,113.12841796875
14.6591796875,111.546875
11.759765625,112.1162109375
8.7861328125,114.7275390625
6.9921875,118.3984375
6.9697265625,121.64208984375
8.283203125,123.19580078125
9.69140625,122.6142578125
9.865234375,120.3935546875
8.1982421875,117.59375
5.146484375,115.31982421875
1.9990234375,114.34228515625
0.0947265625,114.90087890625
0.0634765625,116.65625
1.45703125,118.80322265625
2.9892578125,120.376953125
3.3115234375,120.68212890625
1.810546875,119.61865234375
-1.0146484375,117.746337890625
-3.892578125,116.019775390625
-5.490234375,115.2607421875
-5.064453125,115.6806640625
-2.779296875,116.781494140625
0.4306640625,117.7392578125
3.1943359375,118.01953125
4.2529296875,117.7578125
2.9775390625,117.6591796875
-0.2978515625,118.49365234375
-4.4033203125,120.52197265625
-7.818359375,123.23193359375
-9.365234375,125.52392578125
-8.65234375,126.30615234375
-6.240234375,125.1064453125
-3.3564453125,122.4248046875
-1.2939453125,119.5751953125
-0.78125,118.0634765625
-1.78515625,118.79833984375
-3.7197265625,121.56005859375
-6.0078125,125.08837890625
-8.3486328125,127.80029296875
-10.7685546875,128.69580078125
-13.267578125,127.8984375
-15.564453125,126.48779296875
-17.1064453125,125.754150390625
-17.3681640625,126.3818359375
-16.2939453125,128.02734375
-14.4267578125,129.54736328125
-12.6142578125,129.739990234375
-11.509765625,128.142578125
-11.23828125,125.35498046875
-11.4853515625,122.666015625
-11.873046875,121.22607421875
-12.2275390625,121.36083984375
-12.7001953125,122.43505859375
-13.56640625,123.2841796875
-14.8896484375,122.90966796875
-16.376953125,121.0458984375
-17.427734375,118.2890625
-17.3681640625,115.79541015625
-15.837890625,114.700439453125
-13.037109375,115.596923828125
-9.8515625,118.29248046875
-7.5869140625,121.8896484375
-7.3740234375,125.12109375
-9.486328125,126.83251953125
-13.03515625,126.3984375
-16.3408203125,123.8857421875
-17.8173828125,119.904052734375
-16.8369140625,115.3095703125
-14.0849609375,110.963134765625
-11.11328125,107.57666015625
-9.3359375,105.579833984375
-9.1435546875,104.958251953125
-9.7470703125,105.199951171875
-9.884765625,105.490234375
-8.8076171875,105.161865234375
-6.8125,104.15966796875
-4.970703125,103.171875
-4.3701171875,103.22509765625
-5.4365234375,104.917236328125
-7.712890625,107.81982421875
-10.09765625,110.487060546875
-11.3955078125,111.133544921875
-10.84375,108.568115234375
-8.517578125,102.872314453125
-5.3271484375,95.46337890625
-2.6689453125,88.51806640625
-1.7734375,84.05517578125
-3.1572265625,83.11962890625
-6.453125,85.46875
-10.65234375,89.8349609375
-14.60546875,94.562255859375
-17.474609375,98.228515625
-18.9375,100.071044921875
-19.0771484375,100.083251953125
-18.13671875,98.8447265625
-16.3408203125,97.156982421875
-13.9951171875,95.72119140625
-11.6357421875,95.0302734375
-9.96875,95.42431640625
-9.5224609375,97.06298828125
-10.26953125,99.74658203125
-11.6142578125,102.807373046875
-12.8173828125,105.3828125
-13.50390625,106.984130859375
-13.8642578125,107.92822265625
-14.458984375,109.189697265625
-15.8251953125,111.77001953125
-18.2216796875,116.000244140625
-21.4482421875,121.211669921875
-24.7880859375,125.956298828125
-27.1279296875,128.69873046875
-27.3837890625,128.64306640625
-25.009765625,126.213134765625
-20.3837890625,122.92529296875
-14.8017578125,120.724853515625
-10.0546875,121.13427734375
-7.7294921875,124.6259765625
-8.48046875,130.400390625
-11.6259765625,136.63671875
-15.4072265625,141.1533203125
-17.74609375,142.34033203125
-17.2607421875,139.96826171875
-13.9560546875,135.42578125
-9.32421875,131.14208984375
-5.6259765625,129.392578125
-4.7431640625,131.16259765625
-7.224609375,135.666015625
-11.9921875,140.77490234375
-16.90625,144.1220703125
-19.8525390625,144.2880859375
-19.7998046875,141.47021484375
-17.220703125,137.359375
-13.751953125,134.34619140625
-11.2587890625,134.47265625
-10.916015625,138.5712890625
-12.720703125,145.84423828125
-15.6142578125,154.0517578125
-18.0927734375,160.3134765625
-19.0634765625,162.3154296875
-18.396484375,159.40283203125
-16.9892578125,152.95751953125
-16.2705078125,145.77685546875
-17.3466796875,140.68408203125
-20.3212890625,139.14599609375
-24.1513671875,140.70947265625
-27.26171875,143.55859375
-28.533203125,145.759765625
-27.9072265625,146.349609375
-26.1630859375,145.61767578125
-24.294921875,144.55859375
-22.8916015625,144.06689453125
-22.04296875,144.396484375
-21.5703125,145.1630859375
-21.2958984375,145.70263671875
-21.1748046875,145.51123046875
-21.1591796875,144.49169921875
-21.1279296875,142.92333984375
-20.7978515625,141.24560546875
-19.9228515625,139.837890625
-18.52734375,138.87548828125
-17.107421875,138.29638671875
-16.5302734375,137.912109375
-17.59765625,137.6328125
-20.521484375,137.58056640625
-24.5654296875,137.9296875
-28.2421875,138.61279296875
-30,139.21484375
-29.0400390625,139.203125
-25.8134765625,138.28125
-21.81640625,136.5556640625
-18.7978515625,134.44775390625
-17.9140625,132.39697265625
-19.240234375,130.61865234375
-21.9833984375,128.99609375
-24.9892578125,127.2421875
-27.328125,125.15087890625
-28.4912109375,122.833984375
-28.4404296875,120.8017578125
-27.443359375,119.83740234375
-26.0244140625,120.66650390625
-24.822265625,123.49658203125
-24.4140625,127.6650390625
-24.9580078125,131.7001953125
-26.064453125,133.9287109375
-26.9306640625,133.38671875
-26.857421875,130.53125
-25.67578125,127.212890625
-23.8564453125,125.79638671875
-22.1630859375,127.8232421875
-21.1279296875,133.048828125
-20.7490234375,139.45068359375
-20.625,144.28759765625
-20.4150390625,145.55029296875
-20.1494140625,142.9365234375
-20.2138671875,137.85302734375
-21.0068359375,132.5537109375
-22.6162109375,128.9794921875
-24.724609375,127.916015625
-26.7333984375,128.85595703125
-28.1474609375,130.48779296875
-28.7822265625,131.4970703125
-28.7705078125,131.20263671875
-28.369140625,129.70556640625
-27.728515625,127.5625
-26.880859375,125.32568359375
-25.9150390625,123.3701171875
-25.154296875,122.0615234375
-25.0380859375,121.9755859375
-25.9189453125,123.865234375
-27.8623046875,128.39599609375
-30.5791015625,135.9052734375
-33.4990234375,146.470703125
-35.9423828125,160.341796875
-37.3564453125,178.39501953125
-37.5478515625,202.27978515625
-36.755859375,234.11083984375
-35.4833984375,275.90283203125
-34.22265625,329.00244140625
-33.2783203125,393.6357421875
-32.923828125,468.55126953125
-33.517578125,550.75048828125
-35.416015625,635.4326171875
-38.6298828125,716.40625
-42.4892578125,787.2109375
-45.6806640625,842.73486328125
-46.83984375,880.72412109375
-45.2919921875,902.376953125
-41.6015625,911.6357421875
-37.3525390625,913.41943359375
-34.30859375,911.64013671875
-33.3857421875,907.84765625
-34.173828125,901.08251953125
-35.4033203125,888.9326171875
-35.9208984375,869.3037109375
-35.498046875,842.00927734375
-34.962890625,809.31396484375
-35.615234375,775.07177734375
-38.2607421875,742.93115234375
-42.6005859375,714.6845703125
-47.296875,689.73828125
-50.76953125,665.94140625
-52.1513671875,641.185546875
-51.806640625,614.75830078125
-51.0439453125,587.71728515625
-51.2939453125,562.13232421875
-53.1796875,539.79638671875
-56.1005859375,521.24365234375
-58.5947265625,505.6298828125
-59.2685546875,491.4287109375
-57.7001953125,477.400390625
-54.7373046875,463.22119140625
-51.96484375,449.46875
-50.80859375,437.04736328125
-51.8359375,426.4931640625
-54.5673828125,417.64453125
-57.830078125,409.8330078125
-60.32421875,402.39501953125
-61.1875,395.08203125
-60.2109375,388.064453125
-57.8232421875,381.59521484375
-54.82421875,375.67724609375
-52.13671875,369.958984375
-50.5390625,363.85693359375
-50.396484375,356.79345703125
-51.5390625,348.47119140625
-53.3271484375,339.14892578125
-54.9248046875,329.77880859375
-55.6337890625,321.81005859375
-55.0888671875,316.587890625
-53.3525390625,314.61376953125
-50.90234375,315.12939453125
-48.484375,316.33056640625
-46.8076171875,316.1044921875
-46.23828125,312.939453125
-46.626953125,306.61865234375
-47.478515625,298.3916015625
-48.2919921875,290.4560546875
-48.8193359375,284.9140625
-49.126953125,282.6806640625
-49.4423828125,282.96044921875
-49.9130859375,283.6298828125
-50.40234375,282.3173828125
-50.5390625,277.6484375
-49.962890625,269.96435546875
-48.6572265625,261.146484375
-46.90234375,253.5185546875
-45.1005859375,248.5107421875
-43.48828125,245.93896484375
-42.091796875,244.38818359375
-40.9267578125,242.34228515625
-40.1455078125,239.21630859375
-40.0087890625,235.59130859375
-40.62890625,232.6357421875
-41.7861328125,231.19873046875
-42.875,231.20166015625
-43.193359375,231.6328125
-42.330078125,231.11962890625
-40.58203125,228.697265625
-38.962890625,224.4072265625
-38.6923828125,219.35888671875
-40.4560546875,215.1533203125
-43.779296875,212.96533203125
-47.0888671875,212.83056640625
-48.4521484375,213.642578125
-46.6669921875,213.8876953125
-42.095703125,212.6103515625
-36.6142578125,209.92724609375
-32.638671875,206.763671875
-31.873046875,204.078125
-34.462890625,202.1748046875
-39.0595703125,200.57958984375
-43.6181640625,198.48779296875
-46.4091796875,195.41455078125
-46.7666015625,191.55517578125
-45.220703125,187.630859375
-43.0205078125,184.36279296875
-41.3662109375,182.04052734375
-40.818359375,180.4560546875
-41.142578125,179.20458984375
-41.6435546875,178.00439453125
-41.6943359375,176.8046875
-41.0810546875,175.67041015625
-40.0263671875,174.609375
-38.9443359375,173.47900390625
-38.0888671875,172.08984375
-37.3544921875,170.37353515625
-36.390625,168.50341796875
-34.798828125,166.89111328125
-32.45703125,166.0029296875
-29.625,166.11083984375
-26.873046875,167.0634765625
-24.8037109375,168.2509765625
-23.7724609375,168.82373046875
-23.78515625,168.1142578125
-24.572265625,166.03662109375
-25.79296875,163.1767578125
-27.166015625,160.49169921875
-28.5361328125,158.7822265625
-29.8134765625,158.2880859375
-30.8994140625,158.69140625
-31.54296875,159.412109375
-31.392578125,159.9091796875
-30.25390625,159.8271484375
-28.3759765625,159.001953125
-26.5458984375,157.46044921875
-25.791015625,155.42919921875
-26.859375,153.306640625
-29.8486328125,151.5439453125
-34.068359375,150.43017578125
-38.2958984375,149.8876953125
-41.2490234375,149.49267578125
-42.119140625,148.7724609375
-40.9072265625,147.60498046875
-38.41015625,146.4150390625
-35.7841796875,145.939453125
-34.0029296875,146.7060546875
-33.4453125,148.54931640625
-33.896484375,150.5517578125
-34.841796875,151.50634765625
-35.873046875,150.66455078125
-36.8212890625,148.2880859375
-37.6669921875,145.63037109375
-38.3310546875,144.330078125
-38.59765625,145.5126953125
-38.2451171875,149.09716796875
-37.33984375,153.69677734375
-36.3544921875,157.24560546875
-36.01171875,158.046875
-36.8251953125,155.68798828125
-38.6806640625,151.31884765625
-40.70703125,147.1416015625
-41.744140625,145.34326171875
-41.0322265625,147.048828125
-38.7841796875,151.7890625
-36.1943359375,157.79833984375
-34.921875,162.9287109375
-36.169921875,165.70947265625
-40.0048828125,166.00244140625
-45.0947265625,164.8642578125
-49.3203125,163.7216796875
-50.748046875,163.42333984375
-48.6875,163.80078125
-44.087890625,164.01611328125
-39.12109375,163.39013671875
-36.111328125,162.03564453125
-36.380859375,160.814453125
-39.560546875,160.60595703125
-43.7958984375,161.47021484375
-46.7841796875,162.39697265625
-47.0224609375,161.9228515625
-44.521484375,159.17333984375
-40.6611328125,154.57275390625
-37.322265625,149.71826171875
-35.9814453125,146.48828125
-37.1455078125,145.9619140625
-40.2841796875,147.80224609375
-44.1923828125,150.45703125
-47.548828125,152.076171875
-49.5322265625,151.5849609375
-50.0771484375,149.25830078125
-49.6796875,146.451171875
-48.935546875,144.6904296875
-48.11328125,144.7900390625
-47.0986328125,146.48095703125
-45.6904296875,148.693359375
-44.0029296875,150.197265625
-42.5888671875,150.189453125
-42.2109375,148.63232421875
-43.41796875,146.234375
-46.140625,144.10400390625
-49.61328125,143.1796875
-52.6630859375,143.708984375
-54.240234375,145.1455078125
-53.8857421875,146.5107421875
-51.9677734375,146.96826171875
-49.4853515625,146.26220703125
-47.724609375,144.78173828125
-47.7490234375,143.2802734375
-49.888671875,142.40478515625
-53.41015625,142.306640625
-56.7333984375,142.57080078125
-58.2080078125,142.568359375
-57.11328125,141.98046875
-54.1181640625,141.103515625
-50.8310546875,140.662109375
-48.8818359375,141.30712890625
-48.9873046875,143.177734375
-50.6484375,145.80078125
-52.5908203125,148.32958984375
-53.587890625,149.96044921875
-53.279296875,150.33251953125
-52.365234375,149.7255859375
-52.1083984375,148.90283203125
-53.3603515625,148.6298828125
-55.890625,149.169921875
-58.4072265625,150.13720703125
-59.2958984375,150.77197265625
-57.6220703125,150.47412109375
-53.765625,149.21484375
-49.30859375,147.6025390625
-46.208984375,146.58740234375
-45.7626953125,146.9462890625
-47.873046875,148.81298828125
-51.0908203125,151.546875
-53.3916015625,154.05322265625
-53.375,155.39892578125
-51.0888671875,155.2578125
-47.9814453125,153.921875
-46.033203125,151.91064453125
-46.5146484375,149.5205078125
-49.2412109375,146.67626953125
-52.578125,143.21826171875
-54.4140625,139.4091796875
-53.4599609375,136.1943359375
-50.0419921875,134.91064453125
-45.91015625,136.51953125
-43.1728515625,140.828125
-43.1552734375,146.2939453125
-45.7470703125,150.59814453125
-49.6083984375,151.7421875
-52.9599609375,149.06005859375
-54.4462890625,143.61962890625
-53.6748046875,137.76904296875
-51.2529296875,134.04833984375
-48.3125,134.01025390625
-45.8837890625,137.58837890625
-44.5390625,143.32421875
-44.3330078125,149.21533203125
-45.0390625,153.6142578125
-46.3115234375,155.7041015625
-47.7578125,155.48291015625
-48.892578125,153.513671875
-49.162109375,150.67529296875
-48.16015625,148.00048828125
-45.8798828125,146.46533203125
-42.9208984375,146.6396484375
-40.35546875,148.36669921875
-39.220703125,150.71826171875
-39.9853515625,152.43701171875
-42.3203125,152.61083984375
-45.294921875,151.177734375
-47.8740234375,148.884765625
-49.3916015625,146.7109375
-49.748046875,145.205078125
-49.3544921875,144.26708984375
-48.8837890625,143.48291015625
-48.9140625,142.64404296875
-49.6455078125,141.916015625
-50.8466796875,141.548828125
-52.01171875,141.4365234375
-52.6640625,140.99853515625
-52.5654296875,139.5458984375
-51.767578125,136.8857421875
-50.583984375,133.69873046875
-49.46484375,131.35546875
-48.880859375,131.193359375
-49.1689453125,133.63916015625
-50.42578125,137.7880859375
-52.3564453125,141.763671875
-54.263671875,143.71826171875
-55.2177734375,142.85888671875
-54.4580078125,139.87939453125
-51.8994140625,136.5546875
-48.41015625,134.73779296875
-45.576171875,135.3642578125
-45.009765625,138.0146484375
-47.4755859375,141.25439453125
-52.2978515625,143.498046875
-57.46875,143.85888671875
-60.4658203125,142.51220703125
-59.4443359375,140.44189453125
-54.2578125,138.80224609375
-46.6162109375,138.2587890625
-39.37109375,138.71337890625
-35.21875,139.52099609375
-35.4833984375,140.01220703125
-39.568359375,139.9208984375
-45.35546875,139.47265625
-50.265625,139.15625
-52.455078125,139.3583984375
-51.5107421875,140.10498046875
-48.4912109375,140.96826171875
-45.2373046875,141.205078125
-43.419921875,140.076171875
-43.7724609375,137.2666015625
-45.8095703125,133.18896484375
-48.318359375,128.95947265625
-50.1162109375,126.01171875
-50.6728515625,125.4892578125
-50.255859375,127.7021484375
-49.6318359375,131.927734375
-49.525390625,136.73681640625
-50.1484375,140.66357421875
-51.09765625,142.82666015625
-51.55078125,143.14697265625
-50.787109375,142.07861328125
-48.615234375,140.1455078125
-45.6103515625,137.63525390625
-42.8935546875,134.68212890625
-41.5849609375,131.5625
-42.115234375,128.87353515625
-43.9013671875,127.38818359375
-45.5791015625,127.6513671875
-45.80859375,129.57958984375
-44.0751953125,132.2998046875
-40.9833984375,134.46240234375
-37.87890625,134.9150390625
-36.0654296875,133.43896484375
-36.1611328125,131.0205078125
-37.890625,129.38134765625
-40.4150390625,129.9658203125
-42.8212890625,133.03466796875
-44.515625,137.50341796875
-45.3037109375,141.625
-45.24609375,143.9931640625
-44.484375,144.19921875
-43.2666015625,142.8330078125
-42.0380859375,140.9951171875
-41.46875,139.67529296875
-42.20703125,139.3359375
-44.556640625,139.8857421875
-48.2109375,140.92919921875
-52.1982421875,142.0693359375
-55.189453125,143.06103515625
-55.9638671875,143.787109375
-54.001953125,144.18017578125
-49.8759765625,144.17236328125
-45.15625,143.69482421875
-41.8525390625,142.73876953125
-41.5087890625,141.4677734375
-44.4892578125,140.31103515625
-49.6552734375,139.8720703125
-54.794921875,140.55224609375
-57.64453125,142.15966796875
-56.96484375,143.8583984375
-53.181640625,144.66845703125
-48.0986328125,144.13037109375
-43.921875,142.58544921875
-42.0908203125,140.828125
-42.6474609375,139.43115234375
-44.4560546875,138.32958984375
-46.0185546875,136.98583984375
-46.353515625,134.986328125
-45.3916015625,132.5498046875
-43.9296875,130.5263671875
-43.07421875,129.8876953125
-43.572265625,131.1083984375
-45.3740234375,133.8515625
-47.666015625,137.14306640625
-49.3486328125,139.84326171875
-49.669921875,141.14501953125
-48.634765625,140.82861328125
-47.072265625,139.23095703125
-46.1875,136.99267578125
-46.8681640625,134.7880859375
